timestamp,ppg
1698414815.0089211,21538.0
1698414815.0293386,21546.0
1698414815.049756,21538.0
1698414815.0701735,21547.0
1698414815.0905907,21541.0
1698414815.1110084,21542.0
1698414815.1314259,21547.0
1698414815.1518433,21550.0
1698414815.1722605,21558.0
1698414815.192678,21544.0
1698414815.2130957,21561.0
1698414815.2335129,21559.0
1698414815.2539303,21566.0
1698414815.2743475,21562.0
1698414815.2947652,21561.0
1698414815.3151827,21568.0
1698414815.3356001,21574.0
1698414815.356017,21568.0
1698414815.3764348,21573.0
1698414815.3968523,21578.0
1698414815.4172697,21579.0
1698414815.437687,21579.0
1698414815.4581046,21578.0
1698414815.478522,21574.0
1698414815.4989398,21582.0
1698414815.519357,21586.0
1698414815.5397742,21588.0
1698414815.5601916,21580.0
1698414815.580609,21593.0
1698414815.6010265,21594.0
1698414815.6214437,21589.0
1698414815.6418612,21594.0
1698414815.662279,21592.0
1698414815.6826963,21592.0
1698414815.7031136,21592.0
1698414815.723531,21591.0
1698414815.7439485,21583.0
1698414815.764366,21595.0
1698414815.7847834,21588.0
1698414815.8052006,21591.0
1698414815.8256183,21590.0
1698414815.8460357,21589.0
1698414815.8664532,21593.0
1698414815.8868704,21584.0
1698414815.9072878,21593.0
1698414815.927705,21582.0
1698414815.9481227,21585.0
1698414815.96854,21588.0
1698414815.9889574,21589.0
1698414816.009375,21595.0
1698414816.0297925,21588.0
1698414816.05021,21598.0
1698414816.0706272,21587.0
1698414816.091045,21597.0
1698414816.111462,21594.0
1698414816.1318796,21605.0
1698414816.1522968,21598.0
1698414816.1727145,21600.0
1698414816.193132,21604.0
1698414816.2135494,21609.0
1698414816.2339666,21617.0
1698414816.254384,21616.0
1698414816.2748015,21613.0
1698414816.295219,21613.0
1698414816.3156364,21614.0
1698414816.3360536,21618.0
1698414816.3564713,21622.0
1698414816.376889,21623.0
1698414816.3973062,21623.0
1698414816.4177234,21627.0
1698414816.4381409,21626.0
1698414816.4585583,21631.0
1698414816.4789758,21631.0
1698414816.499393,21631.0
1698414816.5198102,21634.0
1698414816.5402281,21627.0
1698414816.5606456,21634.0
1698414816.581063,21631.0
1698414816.6014802,21633.0
1698414816.6218977,21637.0
1698414816.6423151,21632.0
1698414816.6627328,21629.0
1698414816.6831498,21637.0
1698414816.7035673,21637.0
1698414816.723985,21634.0
1698414816.7444024,21644.0
1698414816.7648196,21655.0
1698414816.785237,21650.0
1698414816.8056543,21660.0
1698414816.826072,21658.0
1698414816.8464894,21659.0
1698414816.8669066,21663.0
1698414816.8873243,21667.0
1698414816.9077418,21672.0
1698414816.9281592,21667.0
1698414816.9485765,21670.0
1698414816.968994,21676.0
1698414816.9894114,21676.0
1698414817.0098288,21674.0
1698414817.030246,21676.0
1698414817.0506635,21671.0
1698414817.0710812,21677.0
1698414817.0914984,21670.0
1698414817.111916,21680.0
1698414817.1323333,21679.0
1698414817.1527507,21676.0
1698414817.1731682,21690.0
1698414817.1935856,21686.0
1698414817.2140028,21685.0
1698414817.2344203,21689.0
1698414817.254838,21689.0
1698414817.2752554,21692.0
1698414817.2956727,21686.0
1698414817.31609,21683.0
1698414817.3365076,21680.0
1698414817.356925,21683.0
1698414817.3773422,21682.0
1698414817.3977597,21678.0
1698414817.4181771,21675.0
1698414817.4385948,21666.0
1698414817.4590123,21666.0
1698414817.4794295,21659.0
1698414817.499847,21656.0
1698414817.5202644,21656.0
1698414817.5406818,21653.0
1698414817.561099,21651.0
1698414817.5815165,21656.0
1698414817.6019342,21658.0
1698414817.6223516,21660.0
1698414817.642769,21661.0
1698414817.6631863,21659.0
1698414817.6836038,21660.0
1698414817.7040212,21668.0
1698414817.7244387,21671.0
1698414817.7448559,21667.0
1698414817.7652733,21669.0
1698414817.785691,21676.0
1698414817.8061085,21680.0
1698414817.826526,21681.0
1698414817.8469431,21687.0
1698414817.8673606,21681.0
1698414817.887778,21688.0
1698414817.9081955,21692.0
1698414817.9286127,21689.0
1698414817.9490304,21690.0
1698414817.9694479,21690.0
1698414817.9898653,21693.0
1698414818.0102825,21690.0
1698414818.0307,21695.0
1698414818.0511174,21691.0
1698414818.0715349,21691.0
1698414818.0919523,21703.0
1698414818.1123695,21706.0
1698414818.1327872,21693.0
1698414818.1532047,21702.0
1698414818.1736221,21698.0
1698414818.1940393,21696.0
1698414818.2144568,21701.0
1698414818.2348745,21697.0
1698414818.2552915,21687.0
1698414818.275709,21693.0
1698414818.2961264,21691.0
1698414818.316544,21694.0
1698414818.3369615,21695.0
1698414818.357379,21690.0
1698414818.377796,21686.0
1698414818.3982136,21694.0
1698414818.418631,21686.0
1698414818.4390485,21689.0
1698414818.4594657,21691.0
1698414818.4798832,21689.0
1698414818.500301,21696.0
1698414818.5207186,21692.0
1698414818.5411355,21689.0
1698414818.561553,21692.0
1698414818.5819705,21688.0
1698414818.602388,21701.0
1698414818.6228054,21696.0
1698414818.6432228,21689.0
1698414818.6636398,21698.0
1698414818.6840577,21693.0
1698414818.7044752,21692.0
1698414818.7248924,21694.0
1698414818.7453098,21695.0
1698414818.7657273,21684.0
1698414818.7861447,21687.0
1698414818.806562,21682.0
1698414818.8269794,21687.0
1698414818.847397,21685.0
1698414818.8678145,21681.0
1698414818.888232,21674.0
1698414818.9086492,21680.0
1698414818.929067,21676.0
1698414818.9494839,21667.0
1698414818.9699016,21677.0
1698414818.9903188,21682.0
1698414819.0107362,21673.0
1698414819.031154,21671.0
1698414819.0515714,21674.0
1698414819.0719883,21669.0
1698414819.092406,21672.0
1698414819.1128235,21667.0
1698414819.133241,21661.0
1698414819.1536584,21668.0
1698414819.1740756,21664.0
1698414819.194493,21676.0
1698414819.2149107,21666.0
1698414819.235328,21671.0
1698414819.2557454,21673.0
1698414819.2761629,21668.0
1698414819.2965803,21669.0
1698414819.3169978,21666.0
1698414819.337415,21677.0
1698414819.3578324,21673.0
1698414819.37825,21676.0
1698414819.3986676,21680.0
1698414819.419085,21688.0
1698414819.4395022,21683.0
1698414819.4599197,21681.0
1698414819.4803371,21679.0
1698414819.5007546,21685.0
1698414819.521172,21685.0
1698414819.5415893,21685.0
1698414819.562007,21685.0
1698414819.5824244,21696.0
1698414819.6028416,21704.0
1698414819.623259,21697.0
1698414819.6436765,21697.0
1698414819.664094,21699.0
1698414819.6845117,21707.0
1698414819.7049286,21701.0
1698414819.725346,21701.0
1698414819.7457638,21708.0
1698414819.7661812,21695.0
1698414819.7865984,21689.0
1698414819.8070161,21696.0
1698414819.827433,21693.0
1698414819.8478508,21701.0
1698414819.868268,21696.0
1698414819.8886855,21701.0
1698414819.909103,21701.0
1698414819.9295206,21697.0
1698414819.949938,21711.0
1698414819.9703553,21706.0
1698414819.9907727,21703.0
1698414820.0111902,21708.0
1698414820.0316076,21708.0
1698414820.0520248,21712.0
1698414820.0724423,21713.0
1698414820.0928602,21712.0
1698414820.1132772,21716.0
1698414820.1336946,21709.0
1698414820.154112,21718.0
1698414820.1745296,21716.0
1698414820.194947,21717.0
1698414820.2153645,21726.0
1698414820.2357814,21723.0
1698414820.2561991,21724.0
1698414820.2766168,21729.0
1698414820.2970343,21740.0
1698414820.3174515,21736.0
1698414820.337869,21740.0
1698414820.3582864,21734.0
1698414820.378704,21745.0
1698414820.399121,21748.0
1698414820.4195385,21743.0
1698414820.439956,21741.0
1698414820.4603736,21745.0
1698414820.480791,21737.0
1698414820.5012085,21737.0
1698414820.5216255,21736.0
1698414820.5420432,21730.0
1698414820.5624607,21724.0
1698414820.5828779,21723.0
1698414820.6032953,21728.0
1698414820.6237128,21724.0
1698414820.6441305,21729.0
1698414820.6645477,21730.0
1698414820.6849651,21729.0
1698414820.7053826,21737.0
1698414820.7258,21729.0
1698414820.7462175,21730.0
1698414820.7666347,21730.0
1698414820.7870522,21726.0
1698414820.8074694,21726.0
1698414820.8278873,21725.0
1698414820.8483045,21732.0
1698414820.868722,21729.0
1698414820.8891394,21725.0
1698414820.9095569,21729.0
1698414820.929974,21718.0
1698414820.9503915,21721.0
1698414820.970809,21724.0
1698414820.9912267,21720.0
1698414821.0116441,21723.0
1698414821.0320613,21720.0
1698414821.0524788,21718.0
1698414821.0728962,21723.0
1698414821.0933137,21729.0
1698414821.113731,21716.0
1698414821.1341484,21733.0
1698414821.1545658,21726.0
1698414821.1749835,21726.0
1698414821.195401,21722.0
1698414821.2158182,21724.0
1698414821.2362356,21727.0
1698414821.256653,21730.0
1698414821.2770705,21724.0
1698414821.2974877,21730.0
1698414821.3179052,21719.0
1698414821.3383226,21728.0
1698414821.3587403,21716.0
1698414821.3791578,21709.0
1698414821.399575,21713.0
1698414821.4199924,21709.0
1698414821.44041,21694.0
1698414821.4608274,21686.0
1698414821.4812446,21682.0
1698414821.501662,21677.0
1698414821.5220797,21676.0
1698414821.5424972,21662.0
1698414821.5629144,21666.0
1698414821.5833318,21660.0
1698414821.6037493,21647.0
1698414821.6241667,21647.0
1698414821.644584,21641.0
1698414821.6650016,21623.0
1698414821.6854188,21624.0
1698414821.7058365,21608.0
1698414821.726254,21604.0
1698414821.7466712,21597.0
1698414821.7670887,21582.0
1698414821.787506,21570.0
1698414821.8079236,21567.0
1698414821.8283408,21556.0
1698414821.8487582,21548.0
1698414821.8691757,21547.0
1698414821.8895934,21540.0
1698414821.9100106,21544.0
1698414821.930428,21549.0
1698414821.9508457,21560.0
1698414821.971263,21571.0
1698414821.9916804,21587.0
1698414822.0120976,21601.0
1698414822.032515,21624.0
1698414822.0529325,21640.0
1698414822.0733502,21660.0
1698414822.0937672,21675.0
1698414822.1141849,21697.0
1698414822.1346023,21713.0
1698414822.1550198,21739.0
1698414822.175437,21755.0
1698414822.1958544,21764.0
1698414822.2162719,21776.0
1698414822.2366898,21784.0
1698414822.257107,21798.0
1698414822.2775242,21812.0
1698414822.2979417,21822.0
1698414822.3183591,21841.0
1698414822.3387766,21867.0
1698414822.3591938,21894.0
1698414822.379611,21920.0
1698414822.4000287,21943.0
1698414822.4204464,21984.0
1698414822.4408636,22016.0
1698414822.461281,22057.0
1698414822.4816985,22097.0
1698414822.502116,22134.0
1698414822.5225334,22172.0
1698414822.5429506,22223.0
1698414822.563368,22256.0
1698414822.5837855,22292.0
1698414822.6042032,22320.0
1698414822.6246204,22362.0
1698414822.645038,22393.0
1698414822.665455,22424.0
1698414822.6858728,22450.0
1698414822.70629,22490.0
1698414822.7267075,22531.0
1698414822.747125,22574.0
1698414822.7675424,22588.0
1698414822.78796,22614.0
1698414822.8083773,22638.0
1698414822.828795,22670.0
1698414822.8492122,22691.0
1698414822.8696296,22723.0
1698414822.8900468,22741.0
1698414822.9104643,22769.0
1698414822.9308817,22794.0
1698414822.9512994,22817.0
1698414822.9717166,22832.0
1698414822.992134,22852.0
1698414823.0125515,22865.0
1698414823.032969,22880.0
1698414823.0533864,22904.0
1698414823.0738037,22918.0
1698414823.094221,22939.0
1698414823.1146388,22951.0
1698414823.1350563,22963.0
1698414823.1554735,22980.0
1698414823.175891,22990.0
1698414823.1963084,23000.0
1698414823.2167258,23010.0
1698414823.237143,23023.0
1698414823.2575603,23031.0
1698414823.277978,23043.0
1698414823.2983954,23057.0
1698414823.318813,23068.0
1698414823.3392303,23078.0
1698414823.3596478,23090.0
1698414823.3800652,23102.0
1698414823.400483,23115.0
1698414823.4208999,23119.0
1698414823.4413173,23134.0
1698414823.4617348,23140.0
1698414823.4821525,23145.0
1698414823.5025697,23151.0
1698414823.5229871,23155.0
1698414823.5434043,23170.0
1698414823.563822,23169.0
1698414823.5842395,23179.0
1698414823.6046567,23183.0
1698414823.6250741,23194.0
1698414823.6454916,23191.0
1698414823.6659093,23194.0
1698414823.6863265,23210.0
1698414823.706744,23220.0
1698414823.7271614,23224.0
1698414823.7475789,23222.0
1698414823.767996,23234.0
1698414823.7884135,23234.0
1698414823.808831,23244.0
1698414823.8292482,23248.0
1698414823.849666,23244.0
1698414823.8700833,23252.0
1698414823.8905008,23254.0
1698414823.9109182,23260.0
1698414823.9313357,23252.0
1698414823.951753,23255.0
1698414823.9721704,23262.0
1698414823.9925878,23251.0
1698414824.0130053,23249.0
1698414824.0334227,23249.0
1698414824.0538402,23243.0
1698414824.0742576,23244.0
1698414824.094675,23243.0
1698414824.1150923,23245.0
1698414824.1355097,23239.0
1698414824.1559272,23246.0
1698414824.1763446,23232.0
1698414824.1967623,23244.0
1698414824.2171795,23244.0
1698414824.237597,23244.0
1698414824.2580144,23244.0
1698414824.278432,23243.0
1698414824.298849,23242.0
1698414824.3192666,23231.0
1698414824.339684,23243.0
1698414824.3601015,23239.0
1698414824.3805192,23241.0
1698414824.4009364,23233.0
1698414824.4213538,23239.0
1698414824.4417713,23239.0
1698414824.4621887,23237.0
1698414824.482606,23241.0
1698414824.5030234,23235.0
1698414824.5234408,23230.0
1698414824.5438583,23230.0
1698414824.564276,23231.0
1698414824.5846932,23221.0
1698414824.6051106,23218.0
1698414824.625528,23215.0
1698414824.6459455,23221.0
1698414824.6663628,23213.0
1698414824.6867805,23206.0
1698414824.7071977,23203.0
1698414824.727615,23205.0
1698414824.7480326,23205.0
1698414824.76845,23198.0
1698414824.7888675,23209.0
1698414824.809285,23195.0
1698414824.8297024,23205.0
1698414824.8501196,23207.0
1698414824.870537,23206.0
1698414824.8909545,23211.0
1698414824.9113722,23214.0
1698414824.9317894,23220.0
1698414824.9522069,23228.0
1698414824.9726245,23235.0
1698414824.9930415,23244.0
1698414825.013459,23262.0
1698414825.0338764,23264.0
1698414825.0542939,23271.0
1698414825.0747113,23267.0
1698414825.095129,23276.0
1698414825.115546,23274.0
1698414825.1359637,23280.0
1698414825.1563811,23282.0
1698414825.1767986,23279.0
1698414825.1972158,23271.0
1698414825.2176332,23276.0
1698414825.2380507,23270.0
1698414825.2584684,23267.0
1698414825.2788856,23271.0
1698414825.299303,23284.0
1698414825.3197205,23272.0
1698414825.340138,23281.0
1698414825.3605554,23291.0
1698414825.3809729,23297.0
1698414825.4013898,23305.0
1698414825.4218075,23308.0
1698414825.442225,23307.0
1698414825.4626424,23295.0
1698414825.48306,23285.0
1698414825.5034773,23278.0
1698414825.5238948,23259.0
1698414825.544312,23255.0
1698414825.5647295,23244.0
1698414825.585147,23232.0
1698414825.6055644,23212.0
1698414825.625982,23202.0
1698414825.6463993,23184.0
1698414825.666817,23162.0
1698414825.687234,23154.0
1698414825.7076516,23138.0
1698414825.7280688,23127.0
1698414825.7484863,23124.0
1698414825.7689037,23126.0
1698414825.7893212,23115.0
1698414825.8097384,23110.0
1698414825.830156,23107.0
1698414825.8505735,23092.0
1698414825.870991,23093.0
1698414825.8914084,23087.0
1698414825.9118257,23082.0
1698414825.932243,23068.0
1698414825.9526606,23069.0
1698414825.9730778,23052.0
1698414825.9934955,23050.0
1698414826.013913,23043.0
1698414826.0343304,23040.0
1698414826.0547478,23030.0
1698414826.075165,23019.0
1698414826.0955825,23026.0
1698414826.116,23020.0
1698414826.1364174,23012.0
1698414826.156835,23007.0
1698414826.1772523,23007.0
1698414826.1976697,23004.0
1698414826.2180872,22998.0
1698414826.2385046,22988.0
1698414826.258922,22982.0
1698414826.2793393,22979.0
1698414826.2997568,22968.0
1698414826.3201742,22973.0
1698414826.3405917,22970.0
1698414826.3610091,22963.0
1698414826.3814266,22966.0
1698414826.401844,22957.0
1698414826.4222617,22949.0
1698414826.4426787,22939.0
1698414826.4630961,22944.0
1698414826.4835136,22943.0
1698414826.503931,22933.0
1698414826.5243485,22935.0
1698414826.5447662,22922.0
1698414826.5651832,22915.0
1698414826.5856009,22919.0
1698414826.606018,22913.0
1698414826.6264355,22908.0
1698414826.646853,22907.0
1698414826.6672704,22904.0
1698414826.6876879,22902.0
1698414826.7081053,22899.0
1698414826.7285228,22896.0
1698414826.7489402,22885.0
1698414826.7693577,22885.0
1698414826.789775,22874.0
1698414826.8101923,22865.0
1698414826.83061,22865.0
1698414826.851027,22852.0
1698414826.8714445,22837.0
1698414826.8918622,22831.0
1698414826.9122796,22836.0
1698414826.932697,22832.0
1698414826.9531145,22824.0
1698414826.9735315,22819.0
1698414826.9939492,22809.0
1698414827.0143666,22804.0
1698414827.034784,22796.0
1698414827.0552015,22784.0
1698414827.075619,22777.0
1698414827.0960364,22765.0
1698414827.1164541,22752.0
1698414827.136871,22739.0
1698414827.1572886,22711.0
1698414827.177706,22707.0
1698414827.1981235,22692.0
1698414827.218541,22686.0
1698414827.2389586,22691.0
1698414827.2593756,22699.0
1698414827.2797933,22700.0
1698414827.3002107,22694.0
1698414827.320628,22697.0
1698414827.3410454,22683.0
1698414827.3614628,22669.0
1698414827.3818803,22648.0
1698414827.4022975,22632.0
1698414827.4227152,22622.0
1698414827.4431326,22604.0
1698414827.46355,22597.0
1698414827.4839675,22583.0
1698414827.5043848,22562.0
1698414827.5248022,22556.0
1698414827.5452194,22545.0
1698414827.565637,22539.0
1698414827.5860543,22533.0
1698414827.606472,22522.0
1698414827.6268895,22519.0
1698414827.647307,22519.0
1698414827.6677241,22526.0
1698414827.6881416,22530.0
1698414827.708559,22524.0
1698414827.7289765,22529.0
1698414827.749394,22531.0
1698414827.7698114,22528.0
1698414827.7902288,22524.0
1698414827.8106463,22516.0
1698414827.8310637,22498.0
1698414827.851481,22483.0
1698414827.8718984,22472.0
1698414827.8923159,22473.0
1698414827.9127333,22483.0
1698414827.9331508,22485.0
1698414827.9535682,22489.0
1698414827.9739857,22496.0
1698414827.9944031,22514.0
1698414828.0148206,22531.0
1698414828.0352378,22532.0
1698414828.0556552,22536.0
1698414828.0760727,22525.0
1698414828.0964901,22511.0
1698414828.1169076,22501.0
1698414828.137325,22490.0
1698414828.1577425,22467.0
1698414828.17816,22459.0
1698414828.1985774,22449.0
1698414828.2189946,22453.0
1698414828.239412,22449.0
1698414828.2598295,22446.0
1698414828.280247,22448.0
1698414828.3006644,22442.0
1698414828.3210819,22452.0
1698414828.3414993,22440.0
1698414828.3619168,22434.0
1698414828.382334,22409.0
1698414828.4027517,22396.0
1698414828.423169,22384.0
1698414828.4435863,22373.0
1698414828.4640038,22350.0
1698414828.4844213,22324.0
1698414828.5048387,22313.0
1698414828.5252562,22307.0
1698414828.5456736,22316.0
1698414828.5660908,22329.0
1698414828.5865083,22321.0
1698414828.6069257,22318.0
1698414828.6273432,22311.0
1698414828.6477604,22306.0
1698414828.668178,22308.0
1698414828.6885958,22306.0
1698414828.709013,22306.0
1698414828.7294304,22299.0
1698414828.7498477,22299.0
1698414828.770265,22303.0
1698414828.7906826,22307.0
1698414828.8111,22308.0
1698414828.831517,22319.0
1698414828.851935,22338.0
1698414828.8723524,22351.0
1698414828.8927698,22355.0
1698414828.913187,22344.0
1698414828.9336045,22336.0
1698414828.954022,22319.0
1698414828.9744396,22306.0
1698414828.9948568,22293.0
1698414829.0152743,22284.0
1698414829.0356917,22277.0
1698414829.0561092,22273.0
1698414829.0765266,22259.0
1698414829.0969439,22248.0
1698414829.117361,22246.0
1698414829.1377788,22234.0
1698414829.1581962,22223.0
1698414829.1786134,22223.0
1698414829.199031,22211.0
1698414829.2194486,22211.0
1698414829.239866,22208.0
1698414829.2602835,22199.0
1698414829.2807007,22191.0
1698414829.3011181,22188.0
1698414829.3215356,22196.0
1698414829.341953,22195.0
1698414829.3623703,22196.0
1698414829.382788,22203.0
1698414829.4032052,22213.0
1698414829.4236228,22229.0
1698414829.44404,22227.0
1698414829.4644575,22228.0
1698414829.484875,22229.0
1698414829.5052924,22227.0
1698414829.5257099,22231.0
1698414829.546127,22226.0
1698414829.566545,22224.0
1698414829.5869622,22226.0
1698414829.6073797,22234.0
1698414829.627797,22236.0
1698414829.6482143,22241.0
1698414829.6686318,22239.0
1698414829.6890492,22236.0
1698414829.7094665,22239.0
1698414829.7298841,22243.0
1698414829.7503016,22232.0
1698414829.770719,22220.0
1698414829.7911365,22213.0
1698414829.8115537,22202.0
1698414829.8319712,22191.0
1698414829.8523889,22190.0
1698414829.872806,22189.0
1698414829.8932233,22192.0
1698414829.913641,22185.0
1698414829.9340584,22190.0
1698414829.9544759,22192.0
1698414829.974893,22198.0
1698414829.9953103,22196.0
1698414830.015728,22164.0
1698414830.0361454,22117.0
1698414830.056563,22098.0
1698414830.07698,22092.0
1698414830.0973978,22103.0
1698414830.1178153,22122.0
1698414830.138233,22180.0
1698414830.15865,22229.0
1698414830.1790674,22227.0
1698414830.1994848,22225.0
1698414830.2199023,22233.0
1698414830.2403195,22228.0
1698414830.260737,22225.0
1698414830.2811544,22223.0
1698414830.301572,22213.0
1698414830.3219895,22207.0
1698414830.3424067,22208.0
1698414830.3628242,22197.0
1698414830.3832417,22180.0
1698414830.403659,22168.0
1698414830.4240763,22161.0
1698414830.444494,22151.0
1698414830.4649115,22151.0
1698414830.485329,22153.0
1698414830.5057461,22157.0
1698414830.5261636,22160.0
1698414830.546581,22152.0
1698414830.5669982,22157.0
1698414830.587416,22153.0
1698414830.6078331,22142.0
1698414830.6282508,22137.0
1698414830.6486683,22134.0
1698414830.6690857,22126.0
1698414830.689503,22124.0
1698414830.7099204,22120.0
1698414830.7303379,22126.0
1698414830.7507553,22126.0
1698414830.7711725,22133.0
1698414830.79159,22138.0
1698414830.8120077,22147.0
1698414830.832425,22158.0
1698414830.8528423,22166.0
1698414830.8732598,22163.0
1698414830.8936772,22170.0
1698414830.9140947,22175.0
1698414830.9345121,22179.0
1698414830.9549294,22193.0
1698414830.975347,22209.0
1698414830.9957645,22219.0
1698414831.016182,22244.0
1698414831.0365992,22269.0
1698414831.0570166,22274.0
1698414831.077434,22288.0
1698414831.0978515,22280.0
1698414831.118269,22280.0
1698414831.1386862,22280.0
1698414831.1591039,22278.0
1698414831.1795213,22272.0
1698414831.1999388,22269.0
1698414831.220356,22261.0
1698414831.2407734,22259.0
1698414831.261191,22264.0
1698414831.2816083,22265.0
1698414831.3020258,22263.0
1698414831.322443,22269.0
1698414831.3428607,22255.0
1698414831.3632782,22240.0
1698414831.3836956,22235.0
1698414831.4041128,22235.0
1698414831.4245305,22235.0
1698414831.4449477,22226.0
1698414831.4653652,22210.0
1698414831.4857824,22213.0
1698414831.5061998,22212.0
1698414831.5266175,22202.0
1698414831.547035,22203.0
1698414831.5674524,22195.0
1698414831.5878696,22188.0
1698414831.608287,22186.0
1698414831.6287045,22179.0
1698414831.649122,22170.0
1698414831.6695392,22167.0
1698414831.689957,22165.0
1698414831.7103746,22169.0
1698414831.7307916,22162.0
1698414831.751209,22159.0
1698414831.7716265,22143.0
1698414831.792044,22143.0
1698414831.8124614,22136.0
1698414831.8328788,22144.0
1698414831.8532958,22149.0
1698414831.8737137,22160.0
1698414831.8941312,22165.0
1698414831.9145486,22177.0
1698414831.9349658,22197.0
1698414831.9553833,22212.0
1698414831.9758008,22228.0
1698414831.9962184,22234.0
1698414832.0166354,22241.0
1698414832.0370529,22240.0
1698414832.0574706,22234.0
1698414832.077888,22233.0
1698414832.0983055,22229.0
1698414832.118723,22218.0
1698414832.13914,22211.0
1698414832.1595576,22206.0
1698414832.179975,22189.0
1698414832.2003922,22175.0
1698414832.2208097,22169.0
1698414832.2412274,22161.0
1698414832.2616448,22173.0
1698414832.282062,22173.0
1698414832.3024795,22176.0
1698414832.322897,22185.0
1698414832.3433144,22176.0
1698414832.3637319,22172.0
1698414832.384149,22166.0
1698414832.404567,22168.0
1698414832.424984,22160.0
1698414832.4454017,22151.0
1698414832.465819,22156.0
1698414832.4862363,22136.0
1698414832.5066538,22139.0
1698414832.5270712,22132.0
1698414832.5474882,22135.0
1698414832.567906,22142.0
1698414832.5883236,22144.0
1698414832.608741,22127.0
1698414832.6291585,22124.0
1698414832.6495757,22123.0
1698414832.6699932,22128.0
1698414832.6904106,22144.0
1698414832.7108278,22146.0
1698414832.7312453,22155.0
1698414832.7516627,22174.0
1698414832.7720804,22168.0
1698414832.7924979,22180.0
1698414832.812915,22177.0
1698414832.8333325,22165.0
1698414832.85375,22163.0
1698414832.8741674,22145.0
1698414832.894585,22150.0
1698414832.915002,22160.0
1698414832.9354196,22169.0
1698414832.9558372,22172.0
1698414832.9762547,22167.0
1698414832.9966722,22156.0
1698414833.0170894,22150.0
1698414833.0375068,22133.0
1698414833.0579243,22128.0
1698414833.0783415,22118.0
1698414833.098759,22114.0
1698414833.1191766,22111.0
1698414833.139594,22099.0
1698414833.1600118,22093.0
1698414833.1804287,22085.0
1698414833.2008462,22078.0
1698414833.2212636,22073.0
1698414833.241681,22085.0
1698414833.2620983,22089.0
1698414833.282516,22109.0
1698414833.3029332,22136.0
1698414833.323351,22146.0
1698414833.3437681,22150.0
1698414833.3641856,22151.0
1698414833.384603,22150.0
1698414833.4050205,22151.0
1698414833.425438,22150.0
1698414833.4458551,22151.0
1698414833.4662726,22166.0
1698414833.4866903,22174.0
1698414833.5071077,22195.0
1698414833.527525,22219.0
1698414833.5479424,22261.0
1698414833.56836,22305.0
1698414833.588777,22348.0
1698414833.6091945,22373.0
1698414833.629612,22396.0
1698414833.6500297,22398.0
1698414833.670447,22407.0
1698414833.6908646,22415.0
1698414833.7112815,22420.0
1698414833.7316992,22421.0
1698414833.7521167,22422.0
1698414833.7725341,22416.0
1698414833.7929513,22395.0
1698414833.8133688,22368.0
1698414833.8337865,22358.0
1698414833.8542042,22335.0
1698414833.8746212,22332.0
1698414833.8950386,22321.0
1698414833.915456,22314.0
1698414833.9358735,22307.0
1698414833.956291,22303.0
1698414833.9767084,22288.0
1698414833.9971254,22287.0
1698414834.0175433,22284.0
1698414834.0379608,22284.0
1698414834.058378,22280.0
1698414834.0787954,22291.0
1698414834.099213,22284.0
1698414834.1196303,22288.0
1698414834.1400476,22289.0
1698414834.160465,22295.0
1698414834.1808825,22304.0
1698414834.2013001,22318.0
1698414834.2217176,22350.0
1698414834.2421348,22373.0
1698414834.2625523,22393.0
1698414834.2829695,22422.0
1698414834.3033872,22462.0
1698414834.3238044,22509.0
1698414834.3442218,22571.0
1698414834.3646395,22606.0
1698414834.385057,22632.0
1698414834.4054742,22623.0
1698414834.4258916,22614.0
1698414834.446309,22599.0
1698414834.4667265,22620.0
1698414834.487144,22649.0
1698414834.5075612,22685.0
1698414834.5279787,22702.0
1698414834.5483963,22693.0
1698414834.5688138,22672.0
1698414834.589231,22643.0
1698414834.6096485,22617.0
1698414834.630066,22597.0
1698414834.6504834,22583.0
1698414834.6709008,22558.0
1698414834.691318,22539.0
1698414834.7117355,22519.0
1698414834.7321532,22501.0
1698414834.7525706,22498.0
1698414834.7729878,22499.0
1698414834.7934053,22500.0
1698414834.8138227,22510.0
1698414834.8342402,22530.0
1698414834.8546576,22559.0
1698414834.8750749,22580.0
1698414834.8954923,22593.0
1698414834.91591,22607.0
1698414834.9363275,22605.0
1698414834.9567447,22590.0
1698414834.9771621,22579.0
1698414834.9975796,22573.0
1698414835.017997,22578.0
1698414835.0384142,22593.0
1698414835.0588317,22629.0
1698414835.0792494,22650.0
1698414835.0996668,22697.0
1698414835.120084,22737.0
1698414835.1405017,22796.0
1698414835.160919,22853.0
1698414835.1813364,22915.0
1698414835.2017539,22960.0
1698414835.222171,22985.0
1698414835.2425885,22992.0
1698414835.2630062,22968.0
1698414835.2834237,22955.0
1698414835.3038409,22925.0
1698414835.3242583,22893.0
1698414835.3446758,22865.0
1698414835.3650932,22848.0
1698414835.3855104,22818.0
1698414835.405928,22815.0
1698414835.4263456,22798.0
1698414835.446763,22764.0
1698414835.4671805,22723.0
1698414835.4875977,22673.0
1698414835.5080152,22645.0
1698414835.5284326,22619.0
1698414835.54885,22614.0
1698414835.569267,22618.0
1698414835.5896847,22625.0
1698414835.6101022,22647.0
1698414835.6305199,22681.0
1698414835.650937,22707.0
1698414835.6713545,22729.0
1698414835.691772,22749.0
1698414835.7121897,22763.0
1698414835.732607,22791.0
1698414835.753024,22809.0
1698414835.7734416,22828.0
1698414835.7938592,22839.0
1698414835.8142767,22849.0
1698414835.834694,22876.0
1698414835.8551111,22897.0
1698414835.8755288,22929.0
1698414835.8959463,22950.0
1698414835.9163635,22968.0
1698414835.936781,22973.0
1698414835.9571984,22975.0
1698414835.977616,22964.0
1698414835.9980335,22948.0
1698414836.0184507,22929.0
1698414836.0388682,22935.0
1698414836.0592856,22955.0
1698414836.079703,22985.0
1698414836.1001203,22998.0
1698414836.1205378,22996.0
1698414836.140955,22976.0
1698414836.161373,22972.0
1698414836.18179,22977.0
1698414836.2022076,22973.0
1698414836.222625,22963.0
1698414836.2430425,22948.0
1698414836.26346,22904.0
1698414836.2838771,22868.0
1698414836.3042948,22828.0
1698414836.3247123,22791.0
1698414836.3451297,22761.0
1698414836.365547,22744.0
1698414836.3859644,22724.0
1698414836.4063818,22718.0
1698414836.4267993,22723.0
1698414836.4472165,22739.0
1698414836.467634,22759.0
1698414836.4880514,22759.0
1698414836.508469,22743.0
1698414836.5288866,22723.0
1698414836.5493038,22713.0
1698414836.5697212,22714.0
1698414836.590139,22744.0
1698414836.6105561,22776.0
1698414836.6309733,22819.0
1698414836.6513908,22838.0
1698414836.6718082,22854.0
1698414836.692226,22878.0
1698414836.7126431,22925.0
1698414836.7330604,22966.0
1698414836.753478,22987.0
1698414836.7738955,23012.0
1698414836.794313,23020.0
1698414836.8147302,23024.0
1698414836.8351476,23010.0
1698414836.855565,23000.0
1698414836.875983,22976.0
1698414836.8964,22962.0
1698414836.9168174,22928.0
1698414836.9372349,22897.0
1698414836.9576523,22864.0
1698414836.9780695,22822.0
1698414836.998487,22782.0
1698414837.0189042,22746.0
1698414837.0393221,22705.0
1698414837.0597396,22676.0
1698414837.0801568,22635.0
1698414837.1005743,22606.0
1698414837.1209917,22585.0
1698414837.1414092,22570.0
1698414837.1618264,22557.0
1698414837.1822438,22574.0
1698414837.2026613,22602.0
1698414837.223079,22640.0
1698414837.2434962,22683.0
1698414837.2639136,22715.0
1698414837.284331,22782.0
1698414837.3047483,22836.0
1698414837.325166,22874.0
1698414837.3455832,22892.0
1698414837.3660007,22903.0
1698414837.386418,22900.0
1698414837.4068358,22906.0
1698414837.427253,22902.0
1698414837.4476705,22909.0
1698414837.468088,22921.0
1698414837.4885054,22920.0
1698414837.5089226,22904.0
1698414837.52934,22905.0
1698414837.5497575,22923.0
1698414837.570175,22945.0
1698414837.5905924,22954.0
1698414837.6110098,22954.0
1698414837.6314273,22925.0
1698414837.6518447,22890.0
1698414837.6722622,22867.0
1698414837.6926794,22872.0
1698414837.7130969,22907.0
1698414837.7335143,22910.0
1698414837.753932,22949.0
1698414837.7743492,22966.0
1698414837.7947667,22987.0
1698414837.815184,22995.0
1698414837.8356016,22996.0
1698414837.856019,22979.0
1698414837.8764362,22949.0
1698414837.8968537,22906.0
1698414837.9172711,22867.0
1698414837.9376888,22839.0
1698414837.958106,22805.0
1698414837.9785235,22757.0
1698414837.998941,22730.0
1698414838.0193584,22715.0
1698414838.0397758,22720.0
1698414838.060193,22747.0
1698414838.0806105,22803.0
1698414838.101028,22858.0
1698414838.1214457,22899.0
1698414838.1418629,22930.0
1698414838.1622806,22940.0
1698414838.1826978,22959.0
1698414838.2031152,22962.0
1698414838.2235324,22965.0
1698414838.24395,22967.0
1698414838.2643673,23006.0
1698414838.2847848,23055.0
1698414838.3052025,23107.0
1698414838.3256197,23151.0
1698414838.3460371,23157.0
1698414838.3664546,23171.0
1698414838.386872,23201.0
1698414838.4072893,23240.0
1698414838.4277067,23274.0
1698414838.4481244,23299.0
1698414838.4685416,23297.0
1698414838.488959,23282.0
1698414838.5093765,23253.0
1698414838.529794,23233.0
1698414838.5502114,23224.0
1698414838.570629,23220.0
1698414838.5910459,23186.0
1698414838.6114635,23123.0
1698414838.631881,23043.0
1698414838.6522987,22942.0
1698414838.672716,22835.0
1698414838.6931334,22734.0
1698414838.7135508,22626.0
1698414838.7339685,22554.0
1698414838.7543855,22509.0
1698414838.774803,22481.0
1698414838.7952204,22487.0
1698414838.8156378,22528.0
1698414838.8360555,22575.0
1698414838.856473,22619.0
1698414838.87689,22663.0
1698414838.8973076,22704.0
1698414838.917725,22725.0
1698414838.9381423,22746.0
1698414838.9585598,22771.0
1698414838.9789772,22810.0
1698414838.999395,22846.0
1698414839.019812,22853.0
1698414839.0402296,22862.0
1698414839.060647,22873.0
1698414839.0810645,22891.0
1698414839.101482,22922.0
1698414839.1218991,22944.0
1698414839.1423168,22957.0
1698414839.1627338,22945.0
1698414839.1831517,22935.0
1698414839.203569,22912.0
1698414839.2239864,22899.0
1698414839.2444038,22885.0
1698414839.2648213,22897.0
1698414839.2852383,22946.0
1698414839.305656,23018.0
1698414839.3260734,23080.0
1698414839.3464909,23107.0
1698414839.3669086,23110.0
1698414839.3873258,23064.0
1698414839.4077432,23030.0
1698414839.4281607,22983.0
1698414839.448578,22951.0
1698414839.4689953,22936.0
1698414839.4894128,22905.0
1698414839.5098302,22877.0
1698414839.5302477,22843.0
1698414839.5506651,22823.0
1698414839.5710826,22792.0
1698414839.5915,22781.0
1698414839.6119175,22795.0
1698414839.632335,22826.0
1698414839.6527522,22874.0
1698414839.6731696,22933.0
1698414839.693587,22992.0
1698414839.7140048,23018.0
1698414839.7344222,23032.0
1698414839.7548394,23017.0
1698414839.7752569,23003.0
1698414839.7956743,22971.0
1698414839.8160915,22958.0
1698414839.836509,22955.0
1698414839.8569264,22952.0
1698414839.877344,22988.0
1698414839.8977618,23030.0
1698414839.9181788,23079.0
1698414839.9385962,23131.0
1698414839.9590137,23173.0
1698414839.9794312,23182.0
1698414839.9998484,23208.0
1698414840.020266,23233.0
1698414840.040683,23252.0
1698414840.0611007,23263.0
1698414840.0815182,23255.0
1698414840.1019356,23248.0
1698414840.122353,23212.0
1698414840.1427705,23178.0
1698414840.163188,23116.0
1698414840.1836052,23050.0
1698414840.2040226,22979.0
1698414840.22444,22916.0
1698414840.2448575,22852.0
1698414840.265275,22783.0
1698414840.2856925,22703.0
1698414840.3061101,22650.0
1698414840.326527,22610.0
1698414840.3469446,22596.0
1698414840.367362,22599.0
1698414840.3877795,22578.0
1698414840.408197,22551.0
1698414840.4286146,22519.0
1698414840.4490316,22489.0
1698414840.4694493,22483.0
1698414840.4898667,22484.0
1698414840.5102842,22492.0
1698414840.5307014,22522.0
1698414840.5511189,22574.0
1698414840.5715363,22610.0
1698414840.591954,22675.0
1698414840.6123712,22705.0
1698414840.6327887,22707.0
1698414840.653206,22700.0
1698414840.6736236,22699.0
1698414840.694041,22702.0
1698414840.7144585,22731.0
1698414840.7348754,22762.0
1698414840.7552931,22800.0
1698414840.7757106,22819.0
1698414840.796128,22842.0
1698414840.8165455,22883.0
1698414840.836963,22911.0
1698414840.8573804,22931.0
1698414840.8777976,22921.0
1698414840.898215,22897.0
1698414840.9186325,22871.0
1698414840.93905,22854.0
1698414840.9594674,22860.0
1698414840.9798849,22882.0
1698414841.0003023,22923.0
1698414841.0207195,22979.0
1698414841.0411372,23003.0
1698414841.0615544,23016.0
1698414841.081972,23011.0
1698414841.1023893,22997.0
1698414841.1228068,22975.0
1698414841.1432242,22946.0
1698414841.1636417,22899.0
1698414841.1840591,22855.0
1698414841.2044766,22818.0
1698414841.224894,22754.0
1698414841.2453113,22712.0
1698414841.2657287,22675.0
1698414841.2861462,22692.0
1698414841.3065636,22736.0
1698414841.326981,22762.0
1698414841.3473985,22791.0
1698414841.367816,22814.0
1698414841.3882334,22825.0
1698414841.4086509,22844.0
1698414841.429068,22865.0
1698414841.4494855,22872.0
1698414841.469903,22871.0
1698414841.4903204,22864.0
1698414841.510738,22862.0
1698414841.5311553,22871.0
1698414841.5515728,22876.0
1698414841.5719903,22891.0
1698414841.5924077,22919.0
1698414841.612825,22961.0
1698414841.6332424,23024.0
1698414841.6536598,23071.0
1698414841.6740775,23114.0
1698414841.6944947,23152.0
1698414841.7149122,23134.0
1698414841.7353296,23105.0
1698414841.755747,23057.0
1698414841.7761643,22992.0
1698414841.7965817,22950.0
1698414841.8169992,22927.0
1698414841.8374166,22924.0
1698414841.857834,22927.0
1698414841.8782518,22934.0
1698414841.898669,22933.0
1698414841.9190865,22939.0
1698414841.939504,22953.0
1698414841.9599211,22955.0
1698414841.9803386,22945.0
1698414842.000756,22916.0
1698414842.0211735,22891.0
1698414842.041591,22865.0
1698414842.0620084,22820.0
1698414842.0824258,22774.0
1698414842.1028433,22726.0
1698414842.1232605,22677.0
1698414842.143678,22623.0
1698414842.1640956,22567.0
1698414842.1845129,22517.0
1698414842.2049303,22477.0
1698414842.2253478,22439.0
1698414842.2457652,22412.0
1698414842.2661827,22401.0
1698414842.2866,22374.0
1698414842.307017,22370.0
1698414842.3274348,22399.0
1698414842.3478522,22466.0
1698414842.3682697,22544.0
1698414842.388687,22628.0
1698414842.4091046,22688.0
1698414842.429522,22732.0
1698414842.4499397,22749.0
1698414842.470357,22767.0
1698414842.4907742,22796.0
1698414842.5111916,22830.0
1698414842.531609,22882.0
1698414842.5520265,22915.0
1698414842.572444,22945.0
1698414842.5928612,22984.0
1698414842.6132789,23012.0
1698414842.6336963,23050.0
1698414842.6541135,23076.0
1698414842.674531,23095.0
1698414842.6949484,23082.0
1698414842.715366,23075.0
1698414842.7357833,23066.0
1698414842.7562008,23058.0
1698414842.7766182,23046.0
1698414842.7970357,23029.0
1698414842.8174531,23005.0
1698414842.8378704,22961.0
1698414842.8582878,22922.0
1698414842.878705,22881.0
1698414842.8991227,22835.0
1698414842.91954,22799.0
1698414842.9399576,22757.0
1698414842.960375,22692.0
1698414842.9807925,22621.0
1698414843.00121,22564.0
1698414843.0216272,22534.0
1698414843.0420449,22532.0
1698414843.062462,22569.0
1698414843.0828795,22622.0
1698414843.1032968,22662.0
1698414843.1237144,22706.0
1698414843.144132,22730.0
1698414843.1645494,22726.0
1698414843.1849666,22698.0
1698414843.205384,22684.0
1698414843.2258015,22778.0
1698414843.246219,22886.0
1698414843.2666364,22905.0
1698414843.2870538,22899.0
1698414843.3074713,22881.0
1698414843.327889,22901.0
1698414843.3483062,22921.0
1698414843.3687234,22919.0
1698414843.3891408,22941.0
1698414843.4095583,22932.0
1698414843.4299757,22895.0
1698414843.450393,22855.0
1698414843.4708104,22838.0
1698414843.491228,22859.0
1698414843.5116456,22888.0
1698414843.532063,22898.0
1698414843.5524802,22896.0
1698414843.5728977,22873.0
1698414843.5933151,22853.0
1698414843.6137328,22830.0
1698414843.6341498,22809.0
1698414843.6545675,22776.0
1698414843.674985,22757.0
1698414843.6954024,22724.0
1698414843.7158196,22698.0
1698414843.736237,22655.0
1698414843.7566543,22620.0
1698414843.777072,22569.0
1698414843.7974894,22516.0
1698414843.8179069,22437.0
1698414843.8383243,22350.0
1698414843.8587418,22316.0
1698414843.8791592,22320.0
1698414843.8995764,22354.0
1698414843.9199939,22388.0
1698414843.9404113,22434.0
1698414843.9608288,22498.0
1698414843.981246,22581.0
1698414844.0016637,22640.0
1698414844.0220811,22689.0
1698414844.0424984,22718.0
1698414844.062916,22732.0
1698414844.0833333,22741.0
1698414844.1037507,22729.0
1698414844.1241682,22732.0
1698414844.1445856,22758.0
1698414844.1650028,22788.0
1698414844.1854205,22836.0
1698414844.205838,22855.0
1698414844.2262554,22876.0
1698414844.2466726,22889.0
1698414844.26709,22916.0
1698414844.2875075,22943.0
1698414844.307925,22967.0
1698414844.3283422,22988.0
1698414844.3487597,23007.0
1698414844.3691773,23000.0
1698414844.3895948,22984.0
1698414844.4100122,22956.0
1698414844.4304295,22946.0
1698414844.450847,22963.0
1698414844.4712644,22985.0
1698414844.4916818,22986.0
1698414844.512099,23007.0
1698414844.5325167,22988.0
1698414844.5529342,22973.0
1698414844.5733516,22967.0
1698414844.593769,22970.0
1698414844.6141863,22977.0
1698414844.6346037,22949.0
1698414844.6550212,22898.0
1698414844.6754386,22860.0
1698414844.6958559,22828.0
1698414844.7162735,22830.0
1698414844.736691,22829.0
1698414844.7571084,22843.0
1698414844.777526,22867.0
1698414844.797943,22921.0
1698414844.8183606,22989.0
1698414844.838778,23061.0
1698414844.8591955,23099.0
1698414844.8796127,23127.0
1698414844.9000306,23146.0
1698414844.9204478,23142.0
1698414844.9408653,23112.0
1698414844.9612825,23077.0
1698414844.9817,23072.0
1698414845.0021174,23078.0
1698414845.0225348,23095.0
1698414845.0429523,23125.0
1698414845.0633695,23151.0
1698414845.0837872,23164.0
1698414845.1042047,23180.0
1698414845.124622,23191.0
1698414845.1450393,23185.0
1698414845.1654568,23170.0
1698414845.1858745,23168.0
1698414845.2062914,23167.0
1698414845.226709,23171.0
1698414845.2471266,23172.0
1698414845.267544,23178.0
1698414845.2879615,23169.0
1698414845.308379,23159.0
1698414845.328796,23140.0
1698414845.3492136,23115.0
1698414845.369631,23065.0
1698414845.3900485,23022.0
1698414845.4104657,22933.0
1698414845.4308834,22842.0
1698414845.4513009,22760.0
1698414845.4717185,22684.0
1698414845.4921355,22642.0
1698414845.512553,22628.0
1698414845.5329704,22624.0
1698414845.5533879,22598.0
1698414845.5738053,22537.0
1698414845.5942228,22472.0
1698414845.61464,22413.0
1698414845.6350577,22378.0
1698414845.6554751,22364.0
1698414845.6758924,22354.0
1698414845.6963098,22358.0
1698414845.7167273,22373.0
1698414845.7371447,22376.0
1698414845.757562,22403.0
1698414845.7779794,22424.0
1698414845.798397,22468.0
1698414845.8188145,22509.0
1698414845.839232,22601.0
1698414845.8596492,22686.0
1698414845.8800669,22744.0
1698414845.9004838,22763.0
1698414845.9209015,22764.0
1698414845.9413188,22766.0
1698414845.9617364,22770.0
1698414845.982154,22754.0
1698414846.0025713,22727.0
1698414846.0229883,22720.0
1698414846.043406,22724.0
1698414846.0638235,22757.0
1698414846.084241,22815.0
1698414846.1046584,22864.0
1698414846.1250756,22928.0
1698414846.1454933,22989.0
1698414846.1659107,23000.0
1698414846.186328,23011.0
1698414846.2067454,22999.0
1698414846.2271628,23009.0
1698414846.2475803,23011.0
1698414846.2679977,23000.0
1698414846.288415,22974.0
1698414846.3088324,22978.0
1698414846.32925,23017.0
1698414846.3496675,23078.0
1698414846.370085,23134.0
1698414846.3905022,23179.0
1698414846.4109197,23223.0
1698414846.431337,23287.0
1698414846.4517546,23334.0
1698414846.472172,23368.0
1698414846.4925895,23381.0
1698414846.513007,23374.0
1698414846.5334244,23359.0
1698414846.5538416,23349.0
1698414846.574259,23322.0
1698414846.5946765,23319.0
1698414846.615094,23319.0
1698414846.6355116,23337.0
1698414846.6559286,23349.0
1698414846.6763463,23373.0
1698414846.6967638,23397.0
1698414846.7171812,23431.0
1698414846.7375984,23444.0
1698414846.758016,23457.0
1698414846.778433,23461.0
1698414846.7988508,23484.0
1698414846.819268,23515.0
1698414846.8396854,23534.0
1698414846.8601031,23544.0
1698414846.8805206,23554.0
1698414846.900938,23552.0
1698414846.9213552,23552.0
1698414846.9417727,23546.0
1698414846.9621902,23556.0
1698414846.9826076,23545.0
1698414847.0030248,23532.0
1698414847.0234423,23501.0
1698414847.0438602,23448.0
1698414847.0642772,23380.0
1698414847.0846946,23306.0
1698414847.105112,23226.0
1698414847.1255295,23149.0
1698414847.145947,23074.0
1698414847.1663644,23006.0
1698414847.1867814,22967.0
1698414847.2071993,22934.0
1698414847.2276168,22903.0
1698414847.2480342,22848.0
1698414847.2684515,22794.0
1698414847.288869,22759.0
1698414847.3092864,22734.0
1698414847.329704,22729.0
1698414847.350121,22744.0
1698414847.3705385,22773.0
1698414847.3909562,22790.0
1698414847.4113736,22801.0
1698414847.431791,22797.0
1698414847.4522085,22792.0
1698414847.4726255,22809.0
1698414847.4930432,22825.0
1698414847.5134606,22858.0
1698414847.5338778,22907.0
1698414847.5542953,22926.0
1698414847.574713,22932.0
1698414847.5951304,22926.0
1698414847.6155477,22904.0
1698414847.635965,22910.0
1698414847.6563826,22906.0
1698414847.6768,22919.0
1698414847.6972175,22915.0
1698414847.7176347,22915.0
1698414847.7380521,22911.0
1698414847.7584696,22924.0
1698414847.7788873,22942.0
1698414847.7993045,22967.0
1698414847.819722,22991.0
1698414847.8401394,23035.0
1698414847.8605568,23057.0
1698414847.880974,23069.0
1698414847.9013915,23074.0
1698414847.9218092,23077.0
1698414847.9422266,23074.0
1698414847.962644,23077.0
1698414847.9830613,23066.0
1698414848.0034788,23044.0
1698414848.0238962,23021.0
1698414848.0443137,23001.0
1698414848.064731,22994.0
1698414848.0851483,22994.0
1698414848.105566,22985.0
1698414848.1259835,22988.0
1698414848.146401,22998.0
1698414848.1668181,23013.0
1698414848.1872356,23034.0
1698414848.207653,23031.0
1698414848.2280705,23038.0
1698414848.2484877,23035.0
1698414848.2689052,23047.0
1698414848.2893229,23058.0
1698414848.3097403,23078.0
1698414848.3301578,23088.0
1698414848.350575,23100.0
1698414848.3709924,23087.0
1698414848.3914099,23080.0
1698414848.4118273,23073.0
1698414848.4322445,23082.0
1698414848.452662,23116.0
1698414848.4730797,23182.0
1698414848.4934971,23238.0
1698414848.5139143,23270.0
1698414848.5343318,23290.0
1698414848.5547493,23319.0
1698414848.5751667,23349.0
1698414848.595584,23345.0
1698414848.6160016,23333.0
1698414848.636419,23315.0
1698414848.6568365,23302.0
1698414848.677254,23275.0
1698414848.6976712,23250.0
1698414848.7180886,23231.0
1698414848.738506,23206.0
1698414848.7589235,23187.0
1698414848.7793407,23166.0
1698414848.7997582,23139.0
1698414848.820176,23126.0
1698414848.8405933,23090.0
1698414848.8610106,23073.0
1698414848.881428,23015.0
1698414848.9018457,22941.0
1698414848.922263,22855.0
1698414848.9426804,22793.0
1698414848.9630976,22718.0
1698414848.983515,22648.0
1698414849.0039327,22592.0
1698414849.0243502,22540.0
1698414849.0447671,22501.0
1698414849.0651848,22478.0
1698414849.0856023,22445.0
1698414849.1060197,22457.0
1698414849.126437,22458.0
1698414849.1468544,22466.0
1698414849.167272,22467.0
1698414849.1876898,22465.0
1698414849.208107,22453.0
1698414849.2285242,22451.0
1698414849.2489417,22446.0
1698414849.269359,22456.0
1698414849.2897766,22446.0
1698414849.3101938,22473.0
1698414849.330611,22504.0
1698414849.351029,22554.0
1698414849.3714464,22610.0
1698414849.3918636,22676.0
1698414849.412281,22702.0
1698414849.4326985,22702.0
1698414849.453116,22728.0
1698414849.4735334,22732.0
1698414849.4939506,22732.0
1698414849.514368,22741.0
1698414849.5347857,22740.0
1698414849.5552032,22750.0
1698414849.5756204,22765.0
1698414849.5960379,22781.0
1698414849.616455,22822.0
1698414849.6368728,22851.0
1698414849.65729,22858.0
1698414849.6777074,22858.0
1698414849.698125,22852.0
1698414849.7185426,22833.0
1698414849.73896,22824.0
1698414849.7593772,22820.0
1698414849.779795,22806.0
1698414849.8002121,22776.0
1698414849.8206296,22743.0
1698414849.8410468,22721.0
1698414849.8614643,22707.0
1698414849.881882,22707.0
1698414849.9022994,22708.0
1698414849.9227166,22713.0
1698414849.943134,22744.0
1698414849.9635515,22798.0
1698414849.983969,22829.0
1698414850.0043864,22847.0
1698414850.0248036,22850.0
1698414850.045221,22834.0
1698414850.065639,22844.0
1698414850.0860562,22871.0
1698414850.1064734,22893.0
1698414850.126891,22941.0
1698414850.1473083,22968.0
1698414850.1677258,22999.0
1698414850.188143,23017.0
1698414850.2085602,23040.0
1698414850.228978,23071.0
1698414850.2493956,23094.0
1698414850.269813,23094.0
1698414850.2902303,23094.0
1698414850.3106477,23105.0
1698414850.3310652,23117.0
1698414850.3514829,23124.0
1698414850.3718998,23127.0
1698414850.3923173,23159.0
1698414850.4127347,23180.0
1698414850.4331524,23185.0
1698414850.4535697,23198.0
1698414850.473987,23191.0
1698414850.4944043,23188.0
1698414850.514822,23183.0
1698414850.5352395,23144.0
1698414850.5556567,23116.0
1698414850.5760741,23081.0
1698414850.5964918,23041.0
1698414850.6169093,23002.0
1698414850.6373265,22963.0
1698414850.657744,22912.0
1698414850.6781614,22864.0
1698414850.6985788,22814.0
1698414850.718996,22773.0
1698414850.7394135,22760.0
1698414850.759831,22767.0
1698414850.7802484,22809.0
1698414850.800666,22855.0
1698414850.8210833,22888.0
1698414850.8415008,22919.0
1698414850.8619182,22923.0
1698414850.8823357,22905.0
1698414850.9027529,22895.0
1698414850.9231703,22840.0
1698414850.9435878,22882.0
1698414850.9640055,22887.0
1698414850.9844227,22886.0
1698414851.0048401,22942.0
1698414851.0252576,22936.0
1698414851.045675,22961.0
1698414851.0660923,22982.0
1698414851.0865097,23015.0
1698414851.1069272,23037.0
1698414851.1273446,23040.0
1698414851.1477623,23046.0
1698414851.1681795,23050.0
1698414851.188597,23042.0
1698414851.2090144,23035.0
1698414851.2294319,23051.0
1698414851.249849,23061.0
1698414851.2702665,23085.0
1698414851.290684,23105.0
1698414851.3111017,23107.0
1698414851.3315191,23112.0
1698414851.3519363,23095.0
1698414851.3723538,23084.0
1698414851.3927712,23041.0
1698414851.4131887,23014.0
1698414851.433606,22973.0
1698414851.4540234,22921.0
1698414851.4744408,22864.0
1698414851.4948585,22801.0
1698414851.515276,22737.0
1698414851.5356932,22708.0
1698414851.5561106,22707.0
1698414851.576528,22750.0
1698414851.5969455,22783.0
1698414851.6173627,22849.0
1698414851.6377804,22916.0
1698414851.6581976,22972.0
1698414851.6786153,22999.0
1698414851.6990325,23000.0
1698414851.71945,22974.0
1698414851.7398674,22927.0
1698414851.760285,22869.0
1698414851.7807024,22858.0
1698414851.8011196,22871.0
1698414851.821537,22924.0
1698414851.8419547,22985.0
1698414851.8623722,23039.0
1698414851.8827894,23061.0
1698414851.9032068,23087.0
1698414851.9236245,23126.0
1698414851.9440415,23147.0
1698414851.964459,23183.0
1698414851.9848764,23211.0
1698414852.0052938,23248.0
1698414852.0257115,23261.0
1698414852.046129,23261.0
1698414852.066546,23268.0
1698414852.0869637,23269.0
1698414852.107381,23267.0
1698414852.1277986,23265.0
1698414852.1482158,23238.0
1698414852.1686332,23219.0
1698414852.1890507,23200.0
1698414852.2094686,23175.0
1698414852.2298856,23144.0
1698414852.250303,23102.0
1698414852.2707205,23023.0
1698414852.291138,22964.0
1698414852.3115554,22886.0
1698414852.3319728,22816.0
1698414852.3523898,22750.0
1698414852.3728075,22660.0
1698414852.3932252,22577.0
1698414852.4136424,22539.0
1698414852.4340599,22513.0
1698414852.4544773,22527.0
1698414852.4748948,22576.0
1698414852.495312,22640.0
1698414852.5157294,22702.0
1698414852.5361469,22757.0
1698414852.5565646,22776.0
1698414852.576982,22792.0
1698414852.5973992,22790.0
1698414852.617817,22797.0
1698414852.638234,22809.0
1698414852.6586516,22826.0
1698414852.6790688,22849.0
1698414852.6994863,22851.0
1698414852.7199037,22863.0
1698414852.7403214,22887.0
1698414852.7607384,22907.0
1698414852.781156,22918.0
1698414852.8015735,22920.0
1698414852.821991,22914.0
1698414852.8424084,22912.0
1698414852.8628256,22897.0
1698414852.883243,22906.0
1698414852.9036605,22877.0
1698414852.924078,22888.0
1698414852.9444954,22887.0
1698414852.964913,22907.0
1698414852.9853303,22930.0
1698414853.0057478,22964.0
1698414853.026165,23021.0
1698414853.0465825,23047.0
1698414853.067,23060.0
1698414853.0874174,23033.0
1698414853.107835,23011.0
1698414853.1282523,22984.0
1698414853.1486697,22976.0
1698414853.1690872,22976.0
1698414853.1895046,22955.0
1698414853.209922,22938.0
1698414853.2303393,22933.0
1698414853.2507567,22974.0
1698414853.2711744,23033.0
1698414853.2915916,23069.0
1698414853.312009,23099.0
1698414853.3324265,23107.0
1698414853.352844,23104.0
1698414853.3732617,23095.0
1698414853.3936787,23093.0
1698414853.414096,23081.0
1698414853.4345136,23072.0
1698414853.4549313,23059.0
1698414853.4753485,23052.0
1698414853.4957662,23054.0
1698414853.5161831,23054.0
1698414853.5366008,23048.0
1698414853.557018,23067.0
1698414853.5774355,23086.0
1698414853.597853,23136.0
1698414853.6182704,23188.0
1698414853.638688,23246.0
1698414853.6591053,23274.0
1698414853.6795228,23296.0
1698414853.6999402,23309.0
1698414853.7203577,23338.0
1698414853.7407749,23341.0
1698414853.7611923,23352.0
1698414853.78161,23378.0
1698414853.802027,23392.0
1698414853.8224447,23391.0
1698414853.8428621,23389.0
1698414853.8632796,23388.0
1698414853.883697,22937.0
1698414853.9041145,22974.0
1698414853.9245315,23022.0
1698414853.9449492,23089.0
1698414853.9653666,23107.0
1698414853.9857843,23127.0
1698414854.0062015,23134.0
1698414854.026619,23122.0
1698414854.0470364,23104.0
1698414854.067454,23069.0
1698414854.087871,23109.0
1698414854.1082885,23129.0
1698414854.128706,23135.0
1698414854.1491234,23239.0
1698414854.1695411,23187.0
1698414854.1899586,23160.0
1698414854.2103755,22937.0
1698414854.2307932,22974.0
1698414854.2512107,23022.0
1698414854.271628,23089.0
1698414854.2920454,23107.0
1698414854.3124628,23127.0
1698414854.3328803,23134.0
1698414854.3532977,23122.0
1698414854.3737152,23104.0
1698414854.3941326,23069.0
1698414854.41455,23109.0
1698414854.4349675,23129.0
1698414854.4553847,23135.0
1698414854.4758022,23239.0
1698414854.4962194,23187.0
1698414854.5166373,23160.0
1698414854.5370545,23178.0
1698414854.557472,23187.0
1698414854.5778894,23184.0
1698414854.598307,23164.0
1698414854.618724,23150.0
1698414854.6391416,23123.0
1698414854.659559,23131.0
1698414854.6799765,23106.0
1698414854.7003942,23119.0
1698414854.7208114,23173.0
1698414854.7412288,23211.0
1698414854.7616463,23262.0
1698414854.7820637,23300.0
1698414854.802481,23330.0
1698414854.8228984,23341.0
1698414854.8433158,23329.0
1698414854.8637333,23291.0
1698414854.884151,23244.0
1698414854.9045682,23206.0
1698414854.9249856,23152.0
1698414854.945403,23102.0
1698414854.9658206,23065.0
1698414854.9862378,23010.0
1698414855.0066552,22978.0
1698414855.0270727,22987.0
1698414855.0474901,23029.0
1698414855.0679078,23084.0
1698414855.088325,23157.0
1698414855.1087425,23188.0
1698414855.12916,23216.0
1698414855.1495774,23206.0
1698414855.1699946,23168.0
1698414855.190412,23157.0
1698414855.2108295,23164.0
1698414855.2312472,23192.0
1698414855.2516644,23230.0
1698414855.2720819,23282.0
1698414855.2924993,23338.0
1698414855.3129168,23370.0
1698414855.333334,23412.0
1698414855.3537517,23444.0
1698414855.3741689,23467.0
1698414855.3945863,23487.0
1698414855.415004,23490.0
1698414855.4354212,23495.0
1698414855.4558387,23506.0
1698414855.4762561,23527.0
1698414855.4966736,23545.0
1698414855.5170908,23559.0
1698414855.5375082,23546.0
1698414855.5579257,23541.0
1698414855.5783432,23543.0
1698414855.5987606,23537.0
1698414855.619178,23541.0
1698414855.6395957,23527.0
1698414855.660013,23515.0
1698414855.6804304,23511.0
1698414855.7008476,23516.0
1698414855.721265,23529.0
1698414855.7416825,23535.0
1698414855.7621,23537.0
1698414855.7825172,23545.0
1698414855.802935,23541.0
1698414855.8233523,23542.0
1698414855.8437698,23525.0
1698414855.864187,23481.0
1698414855.8846045,23414.0
1698414855.905022,23347.0
1698414855.9254396,23291.0
1698414855.945857,23261.0
1698414855.9662743,23266.0
1698414855.9866917,23303.0
1698414856.0071092,23323.0
1698414856.0275266,23317.0
1698414856.0479438,23306.0
1698414856.068361,23292.0
1698414856.0887787,23282.0
1698414856.1091962,23277.0
1698414856.1296136,23284.0
1698414856.150031,23296.0
1698414856.1704485,23329.0
1698414856.190866,23383.0
1698414856.2112834,23420.0
1698414856.2317007,23448.0
1698414856.252118,23472.0
1698414856.2725356,23481.0
1698414856.292953,23504.0
1698414856.3133705,23501.0
1698414856.333788,23488.0
1698414856.3542051,23462.0
1698414856.3746228,23432.0
1698414856.39504,23428.0
1698414856.4154575,23435.0
1698414856.435875,23448.0
1698414856.4562924,23465.0
1698414856.4767098,23472.0
1698414856.4971273,23457.0
1698414856.517545,23428.0
1698414856.5379622,23399.0
1698414856.5583797,23395.0
1698414856.5787969,23401.0
1698414856.5992143,23390.0
1698414856.6196318,23375.0
1698414856.6400492,23385.0
1698414856.6604667,23421.0
1698414856.6808841,23463.0
1698414856.7013016,23498.0
1698414856.721719,23550.0
1698414856.7421365,23584.0
1698414856.7625537,23612.0
1698414856.7829711,23644.0
1698414856.8033888,23681.0
1698414856.823806,23702.0
1698414856.8442235,23697.0
1698414856.864641,23679.0
1698414856.8850584,23671.0
1698414856.9054759,23673.0
1698414856.925893,23679.0
1698414856.9463103,23687.0
1698414856.966728,23708.0
1698414856.9871454,23732.0
1698414857.0075629,23768.0
1698414857.0279803,23777.0
1698414857.0483978,23778.0
1698414857.0688152,23794.0
1698414857.089233,23797.0
1698414857.10965,23817.0
1698414857.1300673,23812.0
1698414857.1504848,23823.0
1698414857.1709023,23825.0
1698414857.1913195,23833.0
1698414857.2117372,23835.0
1698414857.2321544,23832.0
1698414857.252572,23814.0
1698414857.2729895,23793.0
1698414857.2934067,23775.0
1698414857.3138242,23757.0
1698414857.3342416,23728.0
1698414857.354659,23708.0
1698414857.3750765,23668.0
1698414857.395494,23629.0
1698414857.4159114,23594.0
1698414857.436329,23547.0
1698414857.456746,23517.0
1698414857.4771636,23496.0
1698414857.497581,23473.0
1698414857.5179982,23401.0
1698414857.538416,23337.0
1698414857.5588334,23270.0
1698414857.5792508,23205.0
1698414857.5996683,23163.0
1698414857.6200857,23134.0
1698414857.640503,23116.0
1698414857.6609204,23105.0
1698414857.6813378,23103.0
1698414857.7017553,23087.0
1698414857.7221725,23040.0
1698414857.7425902,22989.0
1698414857.7630076,22928.0
1698414857.783425,22874.0
1698414857.8038423,22787.0
1698414857.8242598,22675.0
1698414857.8446772,22559.0
1698414857.8650947,22473.0
1698414857.885512,22366.0
1698414857.9059293,22232.0
1698414857.926347,22105.0
1698414857.9467645,22019.0
1698414857.967182,21933.0
1698414857.9875991,21883.0
1698414858.0080166,21848.0
1698414858.028434,21805.0
1698414858.0488515,21760.0
1698414858.069269,21713.0
1698414858.0896864,21666.0
1698414858.1101038,21628.0
1698414858.1305213,21567.0
1698414858.1509387,21510.0
1698414858.171356,21460.0
1698414858.1917734,21415.0
1698414858.2121909,21365.0
1698414858.2326083,21315.0
1698414858.2530258,21286.0
1698414858.2734432,21266.0
1698414858.2938607,21247.0
1698414858.3142781,21223.0
1698414858.3346956,21190.0
1698414858.3551128,21165.0
1698414858.3755305,21143.0
1698414858.3959477,21122.0
1698414858.4163651,21099.0
1698414858.4367824,21071.0
1698414858.4572,21026.0
1698414858.4776175,20989.0
1698414858.498035,20952.0
1698414858.5184524,20947.0
1698414858.5388696,20902.0
1698414858.559287,20888.0
1698414858.5797045,20920.0
1698414858.600122,20826.0
1698414858.6205392,20818.0
1698414858.6409569,20790.0
1698414858.6613746,20772.0
1698414858.6817915,20741.0
1698414858.702209,20771.0
1698414858.7226264,20754.0
1698414858.743044,20757.0
1698414858.7634614,20755.0
1698414858.7838788,20756.0
1698414858.804296,20747.0
1698414858.8247137,20752.0
1698414858.8451312,20745.0
1698414858.8655486,20743.0
1698414858.8859658,20751.0
1698414858.9063833,20729.0
1698414858.9268007,20730.0
1698414858.9472184,20705.0
1698414858.9676354,20665.0
1698414858.988053,20663.0
1698414859.0084705,20639.0
1698414859.028888,20616.0
1698414859.0493054,20608.0
1698414859.069723,20587.0
1698414859.0901399,20583.0
1698414859.1105576,20584.0
1698414859.130975,20571.0
1698414859.1513922,20575.0
1698414859.17181,20564.0
1698414859.1922274,20558.0
1698414859.2126448,20558.0
1698414859.233062,20561.0
1698414859.2534795,20551.0
1698414859.273897,20563.0
1698414859.2943144,20561.0
1698414859.3147318,20557.0
1698414859.3351493,20550.0
1698414859.355567,20569.0
1698414859.375984,20560.0
1698414859.3964016,20573.0
1698414859.4168189,20569.0
1698414859.4372363,20566.0
1698414859.4576538,20556.0
1698414859.4780712,20550.0
1698414859.4984882,20536.0
1698414859.518906,20531.0
1698414859.5393236,20525.0
1698414859.559741,20521.0
1698414859.5801585,20516.0
1698414859.6005757,20519.0
1698414859.6209931,20523.0
1698414859.6414106,20512.0
1698414859.6618278,20521.0
1698414859.6822453,20525.0
1698414859.702663,20536.0
1698414859.7230804,20525.0
1698414859.7434978,20536.0
1698414859.763915,20550.0
1698414859.7843325,20547.0
1698414859.80475,20543.0
1698414859.8251674,20560.0
1698414859.8455849,20561.0
1698414859.866002,20566.0
1698414859.8864198,20574.0
1698414859.9068372,20591.0
1698414859.9272547,20576.0
1698414859.9476721,20574.0
1698414859.9680893,20574.0
1698414859.9885068,20570.0
1698414860.0089242,20554.0
1698414860.0293415,20557.0
1698414860.0497591,20547.0
1698414860.0701766,20543.0
1698414860.090594,20545.0
1698414860.1110117,20536.0
1698414860.1314287,20541.0
1698414860.1518462,20530.0
1698414860.1722636,20537.0
1698414860.192681,20535.0
1698414860.2130983,20529.0
1698414860.2335162,20528.0
1698414860.2539332,20541.0
1698414860.274351,20543.0
1698414860.294768,20558.0
1698414860.3151855,20556.0
1698414860.335603,20575.0
1698414860.3560205,20575.0
1698414860.376438,20562.0
1698414860.396855,20576.0
1698414860.4172728,20561.0
1698414860.4376903,20555.0
1698414860.4581077,20564.0
1698414860.478525,20577.0
1698414860.4989424,20571.0
1698414860.51936,20584.0
1698414860.539777,20569.0
1698414860.5601945,20559.0
1698414860.580612,20563.0
1698414860.6010296,20562.0
1698414860.621447,20568.0
1698414860.6418645,20563.0
1698414860.6622815,20567.0
1698414860.6826992,20560.0
1698414860.7031167,20563.0
1698414860.723534,20561.0
1698414860.7439513,20562.0
1698414860.764369,20559.0
1698414860.7847865,20560.0
1698414860.8052042,20558.0
1698414860.8256211,20564.0
1698414860.8460386,20552.0
1698414860.866456,20558.0
1698414860.8868735,20543.0
1698414860.907291,20554.0
1698414860.9277084,20555.0
1698414860.9481256,20558.0
1698414860.9685433,20556.0
1698414860.9889607,20548.0
1698414861.009378,20552.0
1698414861.0297954,20539.0
1698414861.0502129,20528.0
1698414861.0706303,20495.0
1698414861.0910475,20503.0
1698414861.111465,20503.0
1698414861.1318827,20498.0
1698414861.1523001,20500.0
1698414861.1727176,20496.0
1698414861.1931348,20491.0
1698414861.2135522,20494.0
1698414861.2339694,20491.0
1698414861.2543871,20474.0
1698414861.2748044,20497.0
1698414861.2952218,20486.0
1698414861.3156395,20490.0
1698414861.336057,20478.0
1698414861.3564742,20487.0
1698414861.3768916,20465.0
1698414861.397309,20473.0
1698414861.4177265,20471.0
1698414861.438144,20457.0
1698414861.4585612,20459.0
1698414861.4789789,20458.0
1698414861.4993963,20451.0
1698414861.5198138,20453.0
1698414861.540231,20450.0
1698414861.5606484,20449.0
1698414861.581066,20440.0
1698414861.6014833,20443.0
1698414861.6219008,20452.0
1698414861.642318,20454.0
1698414861.6627357,20456.0
1698414861.6831532,20458.0
1698414861.7035706,20459.0
1698414861.7239878,20465.0
1698414861.7444053,20468.0
1698414861.7648227,20476.0
1698414861.7852402,20488.0
1698414861.8056576,20489.0
1698414861.8260748,20494.0
1698414861.8464925,20495.0
1698414861.86691,20502.0
1698414861.8873274,20491.0
1698414861.9077446,20507.0
1698414861.928162,20518.0
1698414861.9485795,20524.0
1698414861.968997,20532.0
1698414861.9894142,20542.0
1698414862.009832,20547.0
1698414862.0302494,20545.0
1698414862.0506668,20523.0
1698414862.071084,20504.0
1698414862.0915017,20498.0
1698414862.111919,20460.0
1698414862.1323364,20467.0
1698414862.1527538,20449.0
1698414862.173171,20452.0
1698414862.1935887,20427.0
1698414862.2140062,20431.0
1698414862.2344236,20433.0
1698414862.2548409,20438.0
1698414862.2752583,20439.0
1698414862.2956758,20430.0
1698414862.3160932,20443.0
1698414862.3365104,20436.0
1698414862.3569279,20433.0
1698414862.3773458,20442.0
1698414862.397763,20435.0
1698414862.4181805,20438.0
1698414862.4385977,20440.0
1698414862.4590151,20441.0
1698414862.4794326,20445.0
1698414862.49985,20450.0
1698414862.520267,20455.0
1698414862.5406847,20438.0
1698414862.5611024,20454.0
1698414862.5815198,20435.0
1698414862.601937,20412.0
1698414862.6223545,20437.0
1698414862.642772,20427.0
1698414862.6631896,20435.0
1698414862.6836069,20417.0
1698414862.704024,20425.0
1698414862.7244418,20424.0
1698414862.7448592,20430.0
1698414862.7652767,20418.0
1698414862.785694,20421.0
1698414862.806111,20434.0
1698414862.8265288,20436.0
1698414862.8469462,20445.0
1698414862.8673635,20449.0
1698414862.887781,20453.0
1698414862.9081986,20461.0
1698414862.928616,20472.0
1698414862.9490335,20473.0
1698414862.9694507,20476.0
1698414862.9898682,20480.0
1698414863.0102856,20487.0
1698414863.030703,20490.0
1698414863.0511203,20483.0
1698414863.0715377,20494.0
1698414863.0919552,20479.0
1698414863.1123729,20485.0
1698414863.13279,20480.0
1698414863.1532075,20470.0
1698414863.173625,20465.0
1698414863.1940424,20458.0
1698414863.21446,20460.0
1698414863.234877,20452.0
1698414863.255295,20455.0
1698414863.2757123,20460.0
1698414863.2961297,20476.0
1698414863.316547,20460.0
1698414863.3369644,20480.0
1698414863.3573818,20465.0
1698414863.3777993,20492.0
1698414863.3982165,20482.0
1698414863.418634,20497.0
1698414863.4390516,20502.0
1698414863.459469,20510.0
1698414863.4798865,20506.0
1698414863.5003037,20529.0
1698414863.5207212,20532.0
1698414863.541139,20528.0
1698414863.561556,20518.0
1698414863.5819733,20522.0
1698414863.6023908,20534.0
1698414863.6228085,20538.0
1698414863.643226,20533.0
1698414863.6636431,20524.0
1698414863.6840603,20528.0
1698414863.704478,20538.0
1698414863.7248955,20528.0
1698414863.745313,20512.0
1698414863.7657301,20516.0
1698414863.7861476,20523.0
1698414863.8065653,20515.0
1698414863.826983,20505.0
1698414863.8474,20537.0
1698414863.8678174,20510.0
1698414863.8882349,20524.0
1698414863.9086523,20522.0
1698414863.9290695,20548.0
1698414863.949487,20535.0
1698414863.9699042,20549.0
1698414863.990322,20561.0
1698414864.0107396,20568.0
1698414864.0311568,20564.0
1698414864.0515742,20575.0
1698414864.0719917,20592.0
1698414864.0924091,20582.0
1698414864.1128263,20586.0
1698414864.1332438,20570.0
1698414864.1536615,20582.0
1698414864.174079,20603.0
1698414864.1944962,20587.0
1698414864.2149136,20588.0
1698414864.235331,20585.0
1698414864.2557483,20588.0
1698414864.276166,20561.0
1698414864.2965832,20568.0
1698414864.3170006,20570.0
1698414864.3374183,20575.0
1698414864.3578358,20573.0
1698414864.378253,20580.0
1698414864.3986704,20581.0
1698414864.419088,20585.0
1698414864.4395053,20597.0
1698414864.4599226,20596.0
1698414864.48034,20602.0
1698414864.5007575,20602.0
1698414864.5211751,20609.0
1698414864.5415924,20605.0
1698414864.5620098,20609.0
1698414864.5824273,20614.0
1698414864.6028447,20608.0
1698414864.6232622,20615.0
1698414864.6436794,20614.0
1698414864.6640968,20615.0
1698414864.6845145,20608.0
1698414864.704932,20589.0
1698414864.7253492,20579.0
1698414864.7457666,20554.0
1698414864.766184,20529.0
1698414864.7866015,20513.0
1698414864.807019,20498.0
1698414864.8274362,20492.0
1698414864.8478537,20494.0
1698414864.8682714,20509.0
1698414864.8886888,20517.0
1698414864.909106,20536.0
1698414864.9295235,20543.0
1698414864.949941,20552.0
1698414864.9703584,20574.0
1698414864.9907758,20569.0
