timestamp,ppg
1698923800.0136595,21680.0
1698923800.0341551,21683.0
1698923800.0546508,21689.0
1698923800.0751464,21692.0
1698923800.095642,21684.0
1698923800.1161377,21691.0
1698923800.1366334,21696.0
1698923800.1571288,21698.0
1698923800.1776245,21702.0
1698923800.1981204,21701.0
1698923800.218616,21706.0
1698923800.2391117,21709.0
1698923800.259607,21710.0
1698923800.2801027,21719.0
1698923800.3005984,21714.0
1698923800.3210943,21714.0
1698923800.34159,21721.0
1698923800.3620853,21723.0
1698923800.382581,21720.0
1698923800.403077,21725.0
1698923800.4235725,21728.0
1698923800.4440682,21728.0
1698923800.4645636,21738.0
1698923800.485059,21731.0
1698923800.505555,21736.0
1698923800.5260503,21741.0
1698923800.546546,21748.0
1698923800.5670414,21744.0
1698923800.5875375,21753.0
1698923800.6080332,21750.0
1698923800.6285288,21756.0
1698923800.6490245,21758.0
1698923800.66952,21765.0
1698923800.6900156,21765.0
1698923800.7105117,21769.0
1698923800.731007,21767.0
1698923800.7515028,21778.0
1698923800.7719984,21784.0
1698923800.7924938,21776.0
1698923800.8129895,21779.0
1698923800.8334851,21782.0
1698923800.853981,21787.0
1698923800.8744767,21781.0
1698923800.894972,21780.0
1698923800.9154677,21789.0
1698923800.9359634,21790.0
1698923800.956459,21783.0
1698923800.976955,21782.0
1698923800.9974504,21787.0
1698923801.017946,21788.0
1698923801.0384417,21784.0
1698923801.0589373,21792.0
1698923801.079433,21782.0
1698923801.0999286,21789.0
1698923801.1204243,21788.0
1698923801.14092,21792.0
1698923801.1614156,21788.0
1698923801.1819112,21798.0
1698923801.2024066,21801.0
1698923801.2229023,21804.0
1698923801.2433982,21809.0
1698923801.2638938,21806.0
1698923801.2843895,21813.0
1698923801.304885,21816.0
1698923801.3253806,21812.0
1698923801.3458762,21824.0
1698923801.366372,21823.0
1698923801.3868678,21822.0
1698923801.4073632,21828.0
1698923801.4278588,21826.0
1698923801.4483545,21826.0
1698923801.4688501,21829.0
1698923801.489346,21832.0
1698923801.5098414,21837.0
1698923801.530337,21837.0
1698923801.5508327,21838.0
1698923801.5713284,21839.0
1698923801.591824,21842.0
1698923801.6123195,21841.0
1698923801.6328154,21837.0
1698923801.653311,21836.0
1698923801.6738067,21843.0
1698923801.6943023,21850.0
1698923801.7147982,21849.0
1698923801.7352936,21840.0
1698923801.7557893,21851.0
1698923801.776285,21845.0
1698923801.7967806,21850.0
1698923801.8172758,21859.0
1698923801.8377714,21856.0
1698923801.858267,21856.0
1698923801.8787632,21855.0
1698923801.8992589,21855.0
1698923801.9197545,21859.0
1698923801.94025,21855.0
1698923801.9607456,21860.0
1698923801.9812412,21857.0
1698923802.0017369,21860.0
1698923802.022233,21859.0
1698923802.0427284,21857.0
1698923802.063224,21860.0
1698923802.0837195,21859.0
1698923802.1042151,21852.0
1698923802.1247108,21854.0
1698923802.1452062,21856.0
1698923802.1657019,21860.0
1698923802.1861978,21862.0
1698923802.2066934,21858.0
1698923802.227189,21857.0
1698923802.2476845,21864.0
1698923802.2681804,21859.0
1698923802.288676,21859.0
1698923802.3091717,21859.0
1698923802.3296673,21859.0
1698923802.3501627,21861.0
1698923802.3706584,21862.0
1698923802.391154,21867.0
1698923802.41165,21862.0
1698923802.4321456,21859.0
1698923802.452641,21858.0
1698923802.4731367,21857.0
1698923802.4936323,21859.0
1698923802.514128,21859.0
1698923802.5346239,21863.0
1698923802.5551193,21866.0
1698923802.575615,21864.0
1698923802.5961106,21867.0
1698923802.6166062,21871.0
1698923802.637102,21870.0
1698923802.6575975,21865.0
1698923802.6780932,21873.0
1698923802.6985888,21870.0
1698923802.7190845,21868.0
1698923802.7395802,21864.0
1698923802.7600756,21865.0
1698923802.7805712,21862.0
1698923802.801067,21868.0
1698923802.8215628,21862.0
1698923802.8420584,21861.0
1698923802.862554,21861.0
1698923802.8830495,21864.0
1698923802.9035451,21861.0
1698923802.924041,21867.0
1698923802.9445367,21865.0
1698923802.9650323,21862.0
1698923802.9855278,21866.0
1698923803.0060234,21868.0
1698923803.026519,21868.0
1698923803.047015,21863.0
1698923803.0675106,21869.0
1698923803.088006,21866.0
1698923803.1085017,21871.0
1698923803.1289973,21867.0
1698923803.149493,21868.0
1698923803.1699884,21866.0
1698923803.1904843,21861.0
1698923803.21098,21860.0
1698923803.2314756,21859.0
1698923803.2519712,21852.0
1698923803.272467,21858.0
1698923803.2929623,21851.0
1698923803.3134584,21851.0
1698923803.333954,21845.0
1698923803.3544497,21847.0
1698923803.3749452,21840.0
1698923803.3954408,21834.0
1698923803.4159362,21830.0
1698923803.436432,21827.0
1698923803.4569275,21826.0
1698923803.4774232,21825.0
1698923803.4979188,21824.0
1698923803.5184145,21823.0
1698923803.5389102,21821.0
1698923803.5594058,21820.0
1698923803.5799017,21818.0
1698923803.600397,21816.0
1698923803.6208928,21812.0
1698923803.6413884,21800.0
1698923803.661884,21804.0
1698923803.6823797,21805.0
1698923803.7028754,21800.0
1698923803.723371,21790.0
1698923803.7438667,21783.0
1698923803.7643623,21779.0
1698923803.784858,21774.0
1698923803.8053534,21765.0
1698923803.825849,21762.0
1698923803.846345,21765.0
1698923803.8668406,21755.0
1698923803.8873363,21754.0
1698923803.9078317,21749.0
1698923803.9283273,21738.0
1698923803.948823,21740.0
1698923803.9693189,21733.0
1698923803.9898145,21734.0
1698923804.0103102,21722.0
1698923804.0308056,21726.0
1698923804.0513012,21717.0
1698923804.071797,21720.0
1698923804.0922928,21713.0
1698923804.1127884,21711.0
1698923804.1332839,21709.0
1698923804.1537795,21705.0
1698923804.1742752,21713.0
1698923804.1947708,21706.0
1698923804.2152665,21701.0
1698923804.2357621,21708.0
1698923804.2562578,21700.0
1698923804.2767534,21703.0
1698923804.297249,21701.0
1698923804.3177447,21699.0
1698923804.3382401,21704.0
1698923804.358736,21707.0
1698923804.3792317,21710.0
1698923804.3997273,21696.0
1698923804.420223,21695.0
1698923804.4407184,21690.0
1698923804.461214,21690.0
1698923804.48171,21691.0
1698923804.5022056,21687.0
1698923804.5227013,21680.0
1698923804.5431967,21682.0
1698923804.5636923,21682.0
1698923804.584188,21677.0
1698923804.6046836,21687.0
1698923804.6251795,21674.0
1698923804.645675,21677.0
1698923804.6661708,21670.0
1698923804.6866665,21672.0
1698923804.7071621,21674.0
1698923804.7276578,21674.0
1698923804.7481532,21675.0
1698923804.7686489,21682.0
1698923804.7891443,21665.0
1698923804.80964,21674.0
1698923804.8301356,21668.0
1698923804.850631,21675.0
1698923804.8711271,21672.0
1698923804.8916228,21676.0
1698923804.9121184,21678.0
1698923804.932614,21680.0
1698923804.9531095,21677.0
1698923804.9736052,21684.0
1698923804.9941008,21679.0
1698923805.0145967,21686.0
1698923805.0350924,21665.0
1698923805.055588,21664.0
1698923805.0760834,21660.0
1698923805.096579,21650.0
1698923805.1170747,21647.0
1698923805.1375706,21645.0
1698923805.1580663,21647.0
1698923805.1785617,21655.0
1698923805.1990573,21665.0
1698923805.219553,21662.0
1698923805.2400486,21661.0
1698923805.2605445,21661.0
1698923805.28104,21669.0
1698923805.3015356,21657.0
1698923805.3220313,21656.0
1698923805.342527,21653.0
1698923805.3630226,21659.0
1698923805.383518,21652.0
1698923805.4040139,21653.0
1698923805.4245095,21655.0
1698923805.4450052,21657.0
1698923805.4655008,21648.0
1698923805.4859962,21648.0
1698923805.506492,21641.0
1698923805.5269878,21635.0
1698923805.5474834,21629.0
1698923805.567979,21611.0
1698923805.5884745,21600.0
1698923805.6089702,21591.0
1698923805.6294658,21574.0
1698923805.6499617,21566.0
1698923805.6704574,21552.0
1698923805.6909528,21532.0
1698923805.7114484,21507.0
1698923805.731944,21493.0
1698923805.7524397,21473.0
1698923805.7729354,21452.0
1698923805.793431,21426.0
1698923805.8139267,21413.0
1698923805.8344223,21395.0
1698923805.854918,21385.0
1698923805.8754137,21374.0
1698923805.895909,21369.0
1698923805.916405,21360.0
1698923805.9369006,21349.0
1698923805.9573963,21335.0
1698923805.977892,21324.0
1698923805.9983878,21310.0
1698923806.018883,21287.0
1698923806.039379,21274.0
1698923806.0598745,21258.0
1698923806.0803702,21249.0
1698923806.1008654,21235.0
1698923806.121361,21217.0
1698923806.141857,21199.0
1698923806.1623523,21184.0
1698923806.1828485,21161.0
1698923806.203344,21143.0
1698923806.2238395,21118.0
1698923806.2443352,21092.0
1698923806.2648308,21067.0
1698923806.2853265,21049.0
1698923806.3058226,21014.0
1698923806.326318,20988.0
1698923806.3468137,20966.0
1698923806.367309,20940.0
1698923806.3878047,20921.0
1698923806.4083004,20902.0
1698923806.4287958,20888.0
1698923806.4492915,20869.0
1698923806.4697874,20850.0
1698923806.490283,20844.0
1698923806.5107787,20835.0
1698923806.531274,20827.0
1698923806.5517697,20809.0
1698923806.5722656,20806.0
1698923806.5927613,20794.0
1698923806.613257,20782.0
1698923806.6337523,20775.0
1698923806.654248,20768.0
1698923806.6747437,20764.0
1698923806.6952395,20760.0
1698923806.7157352,20762.0
1698923806.7362306,20765.0
1698923806.7567263,20767.0
1698923806.777222,20754.0
1698923806.7977176,20757.0
1698923806.8182135,20755.0
1698923806.8387089,20750.0
1698923806.8592045,20749.0
1698923806.8797002,20740.0
1698923806.9001958,20739.0
1698923806.9206915,20732.0
1698923806.941187,20724.0
1698923806.9616828,20717.0
1698923806.9821784,20708.0
1698923807.002674,20713.0
1698923807.0231698,20704.0
1698923807.0436652,20709.0
1698923807.0641608,20715.0
1698923807.0846567,20719.0
1698923807.1051524,20709.0
1698923807.125648,20697.0
1698923807.1461434,20687.0
1698923807.166639,20676.0
1698923807.1871347,20669.0
1698923807.2076304,20663.0
1698923807.2281263,20655.0
1698923807.248622,20662.0
1698923807.2691174,20653.0
1698923807.289613,20661.0
1698923807.3101087,20658.0
1698923807.3306043,20664.0
1698923807.3511002,20658.0
1698923807.3715956,20647.0
1698923807.3920913,20634.0
1698923807.412587,20616.0
1698923807.4330826,20606.0
1698923807.453578,20588.0
1698923807.474074,20568.0
1698923807.4945695,20561.0
1698923807.5150652,20552.0
1698923807.5355608,20543.0
1698923807.5560565,20530.0
1698923807.576552,20520.0
1698923807.5970476,20509.0
1698923807.6175437,20516.0
1698923807.638039,20510.0
1698923807.658535,20505.0
1698923807.6790304,20500.0
1698923807.6995258,20501.0
1698923807.7200215,20489.0
1698923807.7405171,20496.0
1698923807.761013,20492.0
1698923807.7815082,20493.0
1698923807.802004,20494.0
1698923807.8224998,20493.0
1698923807.8429954,20501.0
1698923807.8634913,20502.0
1698923807.8839867,20510.0
1698923807.9044824,20513.0
1698923807.924978,20512.0
1698923807.9454737,20512.0
1698923807.9659693,20509.0
1698923807.9864647,20501.0
1698923808.0069606,20481.0
1698923808.0274563,20471.0
1698923808.047952,20462.0
1698923808.0684476,20448.0
1698923808.088943,20443.0
1698923808.1094387,20436.0
1698923808.1299345,20423.0
1698923808.1504302,20417.0
1698923808.1709259,20415.0
1698923808.1914213,20393.0
1698923808.211917,20391.0
1698923808.2324126,20377.0
1698923808.2529085,20365.0
1698923808.2734041,20367.0
1698923808.2938998,20368.0
1698923808.3143952,20369.0
1698923808.3348908,20370.0
1698923808.3553865,20377.0
1698923808.3758821,20388.0
1698923808.396378,20390.0
1698923808.4168735,20396.0
1698923808.437369,20407.0
1698923808.4578648,20408.0
1698923808.4783604,20405.0
1698923808.498856,20401.0
1698923808.5193517,20393.0
1698923808.5398474,20380.0
1698923808.560343,20359.0
1698923808.5808387,20344.0
1698923808.6013343,20328.0
1698923808.6218297,20322.0
1698923808.6423256,20303.0
1698923808.6628213,20297.0
1698923808.683317,20280.0
1698923808.7038126,20278.0
1698923808.724308,20268.0
1698923808.7448037,20264.0
1698923808.7652993,20264.0
1698923808.7857952,20259.0
1698923808.8062909,20260.0
1698923808.8267863,20259.0
1698923808.847282,20261.0
1698923808.8677776,20258.0
1698923808.8882732,20267.0
1698923808.9087691,20274.0
1698923808.9292645,20279.0
1698923808.9497604,20288.0
1698923808.970256,20290.0
1698923808.9907517,20289.0
1698923809.0112472,20293.0
1698923809.0317428,20290.0
1698923809.0522382,20295.0
1698923809.0727339,20289.0
1698923809.0932295,20285.0
1698923809.1137252,20258.0
1698923809.1342208,20248.0
1698923809.1547165,20233.0
1698923809.1752124,20226.0
1698923809.195708,20222.0
1698923809.2162037,20208.0
1698923809.236699,20193.0
1698923809.2571948,20176.0
1698923809.2776904,20156.0
1698923809.2981863,20163.0
1698923809.318682,20152.0
1698923809.3391776,20152.0
1698923809.359673,20154.0
1698923809.3801687,20158.0
1698923809.4006643,20164.0
1698923809.4211602,20171.0
1698923809.4416559,20180.0
1698923809.4621513,20184.0
1698923809.482647,20197.0
1698923809.5031426,20206.0
1698923809.5236382,20207.0
1698923809.544134,20221.0
1698923809.5646296,20229.0
1698923809.5851252,20239.0
1698923809.6056209,20242.0
1698923809.6261165,20241.0
1698923809.6466122,20235.0
1698923809.6671076,20219.0
1698923809.6876035,20206.0
1698923809.7080991,20191.0
1698923809.7285948,20186.0
1698923809.7490904,20177.0
1698923809.7695858,20167.0
1698923809.7900815,20153.0
1698923809.8105774,20148.0
1698923809.831073,20142.0
1698923809.8515687,20141.0
1698923809.872064,20148.0
1698923809.8925598,20151.0
1698923809.9130554,20146.0
1698923809.933551,20150.0
1698923809.954047,20163.0
1698923809.9745424,20156.0
1698923809.995038,20163.0
1698923810.0155337,20167.0
1698923810.0360293,20173.0
1698923810.056525,20171.0
1698923810.0770206,20184.0
1698923810.0975163,20187.0
1698923810.118012,20186.0
1698923810.1385076,20192.0
1698923810.1590033,20195.0
1698923810.1794987,20185.0
1698923810.1999946,20178.0
1698923810.2204902,20168.0
1698923810.2409859,20145.0
1698923810.2614815,20133.0
1698923810.281977,20122.0
1698923810.3024728,20111.0
1698923810.3229685,20093.0
1698923810.3434641,20079.0
1698923810.3639598,20074.0
1698923810.384455,20061.0
1698923810.4049509,20067.0
1698923810.4254463,20066.0
1698923810.445942,20074.0
1698923810.466438,20077.0
1698923810.4869337,20084.0
1698923810.5074291,20095.0
1698923810.5279248,20099.0
1698923810.5484204,20115.0
1698923810.568916,20119.0
1698923810.5894117,20131.0
1698923810.6099076,20134.0
1698923810.630403,20143.0
1698923810.6508987,20151.0
1698923810.6713943,20153.0
1698923810.69189,20164.0
1698923810.7123854,20164.0
1698923810.732881,20160.0
1698923810.753377,20150.0
1698923810.7738726,20138.0
1698923810.7943683,20130.0
1698923810.8148637,20115.0
1698923810.8353593,20108.0
1698923810.8558552,20106.0
1698923810.8763509,20096.0
1698923810.8968465,20095.0
1698923810.917342,20081.0
1698923810.9378376,20082.0
1698923810.9583333,20090.0
1698923810.978829,20087.0
1698923810.9993248,20089.0
1698923811.0198202,20091.0
1698923811.0403159,20092.0
1698923811.0608115,20096.0
1698923811.0813072,20098.0
1698923811.1018028,20108.0
1698923811.1222985,20104.0
1698923811.1427941,20109.0
1698923811.1632898,20112.0
1698923811.1837854,20112.0
1698923811.204281,20122.0
1698923811.2247765,20128.0
1698923811.2452724,20127.0
1698923811.265768,20118.0
1698923811.2862637,20111.0
1698923811.3067594,20092.0
1698923811.3272548,20078.0
1698923811.3477504,20062.0
1698923811.368246,20053.0
1698923811.388742,20041.0
1698923811.4092376,20028.0
1698923811.429733,20015.0
1698923811.4502287,20006.0
1698923811.4707243,19995.0
1698923811.49122,19991.0
1698923811.511716,19993.0
1698923811.5322115,19993.0
1698923811.552707,19997.0
1698923811.5732026,20002.0
1698923811.5936983,20009.0
1698923811.614194,20023.0
1698923811.6346898,20037.0
1698923811.6551852,20041.0
1698923811.6756809,20048.0
1698923811.6961765,20056.0
1698923811.7166722,20068.0
1698923811.7371676,20074.0
1698923811.757663,20079.0
1698923811.7781591,20084.0
1698923811.7986548,20080.0
1698923811.8191504,20083.0
1698923811.839646,20073.0
1698923811.8601415,20055.0
1698923811.8806372,20043.0
1698923811.901133,20034.0
1698923811.921629,20014.0
1698923811.9421246,20007.0
1698923811.96262,19998.0
1698923811.9831154,19989.0
1698923812.003611,19981.0
1698923812.024107,19977.0
1698923812.0446024,19982.0
1698923812.0650978,19974.0
1698923812.0855937,19964.0
1698923812.1060894,19969.0
1698923812.126585,19960.0
1698923812.1470807,19957.0
1698923812.1675763,19959.0
1698923812.188072,19956.0
1698923812.2085676,19957.0
1698923812.2290633,19956.0
1698923812.249559,19950.0
1698923812.2700543,19948.0
1698923812.2905502,19941.0
1698923812.311046,19936.0
1698923812.3315415,19931.0
1698923812.3520372,19916.0
1698923812.3725326,19899.0
1698923812.3930283,19886.0
1698923812.4135242,19875.0
1698923812.4340198,19851.0
1698923812.4545155,19834.0
1698923812.4750109,19829.0
1698923812.4955065,19821.0
1698923812.5160022,19804.0
1698923812.5364978,19795.0
1698923812.5569937,19790.0
1698923812.5774894,19794.0
1698923812.5979848,19796.0
1698923812.6184804,19805.0
1698923812.638976,19806.0
1698923812.6594718,19818.0
1698923812.6799676,19824.0
1698923812.700463,19836.0
1698923812.7209587,19843.0
1698923812.7414544,19845.0
1698923812.76195,19859.0
1698923812.7824457,19871.0
1698923812.8029413,19878.0
1698923812.823437,19880.0
1698923812.8439326,19889.0
1698923812.8644283,19897.0
1698923812.884924,19886.0
1698923812.9054193,19891.0
1698923812.925915,19870.0
1698923812.946411,19867.0
1698923812.9669065,19853.0
1698923812.9874022,19837.0
1698923813.0078976,19828.0
1698923813.0283933,19821.0
1698923813.048889,19813.0
1698923813.0693848,19808.0
1698923813.0898805,19804.0
1698923813.110376,19806.0
1698923813.1308715,19809.0
1698923813.1513672,19818.0
1698923813.1718628,19811.0
1698923813.1923587,19817.0
1698923813.2128541,19817.0
1698923813.23335,19819.0
1698923813.2538457,19812.0
1698923813.274341,19807.0
1698923813.294837,19805.0
1698923813.3153324,19803.0
1698923813.3358278,19806.0
1698923813.3563235,19808.0
1698923813.3768191,19802.0
1698923813.397315,19800.0
1698923813.4178102,19795.0
1698923813.438306,19781.0
1698923813.458802,19765.0
1698923813.4792976,19748.0
1698923813.4997933,19730.0
1698923813.5202887,19720.0
1698923813.5407844,19706.0
1698923813.56128,19696.0
1698923813.581776,19690.0
1698923813.6022716,19686.0
1698923813.622767,19680.0
1698923813.6432626,19678.0
1698923813.6637583,19680.0
1698923813.684254,19689.0
1698923813.7047496,19689.0
1698923813.7252455,19701.0
1698923813.745741,19703.0
1698923813.7662365,19720.0
1698923813.7867322,19728.0
1698923813.8072278,19736.0
1698923813.8277235,19751.0
1698923813.8482192,19759.0
1698923813.8687148,19771.0
1698923813.8892105,19775.0
1698923813.909706,19788.0
1698923813.9302018,19786.0
1698923813.9506972,19792.0
1698923813.9711928,19788.0
1698923813.9916887,19787.0
1698923814.0121844,19770.0
1698923814.03268,19770.0
1698923814.0531754,19762.0
1698923814.073671,19756.0
1698923814.0941668,19748.0
1698923814.1146626,19742.0
1698923814.1351583,19738.0
1698923814.1556537,19722.0
1698923814.1761494,19731.0
1698923814.196645,19731.0
1698923814.2171407,19736.0
1698923814.2376366,19736.0
1698923814.258132,19737.0
1698923814.2786276,19748.0
1698923814.2991233,19742.0
1698923814.319619,19742.0
1698923814.3401146,19740.0
1698923814.36061,19737.0
1698923814.381106,19738.0
1698923814.4016016,19732.0
1698923814.4220972,19742.0
1698923814.4425929,19740.0
1698923814.4630883,19739.0
1698923814.483584,19734.0
1698923814.5040798,19722.0
1698923814.5245755,19714.0
1698923814.5450711,19700.0
1698923814.5655668,19687.0
1698923814.5860624,19685.0
1698923814.606558,19660.0
1698923814.6270537,19657.0
1698923814.6475494,19644.0
1698923814.6680448,19635.0
1698923814.6885402,19629.0
1698923814.7090359,19631.0
1698923814.7295315,19626.0
1698923814.7500272,19631.0
1698923814.7705233,19622.0
1698923814.7910187,19617.0
1698923814.8115144,19617.0
1698923814.83201,19628.0
1698923814.8525057,19632.0
1698923814.8730013,19630.0
1698923814.893497,19642.0
1698923814.913993,19658.0
1698923814.9344883,19664.0
1698923814.954984,19676.0
1698923814.9754796,19682.0
1698923814.995975,19693.0
1698923815.016471,19697.0
1698923815.0369666,19708.0
1698923815.0574622,19711.0
1698923815.0779579,19697.0
1698923815.0984533,19698.0
1698923815.118949,19690.0
1698923815.1394446,19684.0
1698923815.1599405,19677.0
1698923815.1804361,19678.0
1698923815.2009315,19662.0
1698923815.2214272,19659.0
1698923815.2419229,19656.0
1698923815.2624185,19660.0
1698923815.2829144,19656.0
1698923815.3034098,19661.0
1698923815.3239055,19652.0
1698923815.3444011,19655.0
1698923815.3648968,19657.0
1698923815.3853924,19659.0
1698923815.405888,19663.0
1698923815.4263837,19659.0
1698923815.4468794,19658.0
1698923815.467375,19658.0
1698923815.4878707,19658.0
1698923815.508366,19657.0
1698923815.5288618,19659.0
1698923815.5493577,19651.0
1698923815.5698533,19651.0
1698923815.590349,19644.0
1698923815.6108444,19631.0
1698923815.63134,19612.0
1698923815.6518357,19597.0
1698923815.6723316,19586.0
1698923815.6928272,19570.0
1698923815.7133226,19560.0
1698923815.7338183,19554.0
1698923815.754314,19545.0
1698923815.7748096,19547.0
1698923815.7953055,19543.0
1698923815.8158011,19539.0
1698923815.8362966,19542.0
1698923815.8567922,19549.0
1698923815.8772879,19545.0
1698923815.8977835,19548.0
1698923815.9182792,19550.0
1698923815.9387748,19547.0
1698923815.9592705,19549.0
1698923815.9797661,19554.0
1698923816.0002618,19554.0
1698923816.0207572,19548.0
1698923816.0412529,19560.0
1698923816.0617487,19566.0
1698923816.0822444,19577.0
1698923816.10274,19582.0
1698923816.1232357,19592.0
1698923816.143731,19605.0
1698923816.1642268,19602.0
1698923816.184723,19605.0
1698923816.2052186,19604.0
1698923816.2257142,19603.0
1698923816.2462096,19601.0
1698923816.266705,19597.0
1698923816.2872007,19604.0
1698923816.3076963,19600.0
1698923816.328192,19609.0
1698923816.3486874,19607.0
1698923816.369183,19623.0
1698923816.389679,19623.0
1698923816.4101746,19614.0
1698923816.4306703,19615.0
1698923816.451166,19618.0
1698923816.4716616,19621.0
1698923816.4921572,19621.0
1698923816.5126529,19620.0
1698923816.5331485,19617.0
1698923816.553644,19619.0
1698923816.5741398,19618.0
1698923816.5946355,19616.0
1698923816.6151311,19615.0
1698923816.6356268,19614.0
1698923816.6561222,19614.0
1698923816.6766179,19616.0
1698923816.6971135,19614.0
1698923816.7176094,19613.0
1698923816.738105,19613.0
1698923816.7586005,19608.0
1698923816.7790961,19604.0
1698923816.7995918,19588.0
1698923816.8200874,19583.0
1698923816.8405833,19584.0
1698923816.8610787,19580.0
1698923816.8815744,19578.0
1698923816.90207,19576.0
1698923816.9225657,19576.0
1698923816.9430614,19570.0
1698923816.9635572,19577.0
1698923816.9840527,19578.0
1698923817.0045483,19569.0
1698923817.025044,19576.0
1698923817.0455396,19572.0
1698923817.0660353,19577.0
1698923817.0865307,19576.0
1698923817.1070266,19581.0
1698923817.1275222,19586.0
1698923817.148018,19594.0
1698923817.1685135,19594.0
1698923817.189009,19594.0
1698923817.2095046,19594.0
1698923817.2300005,19593.0
1698923817.2504961,19589.0
1698923817.2709918,19573.0
1698923817.2914872,19561.0
1698923817.3119829,19555.0
1698923817.3324785,19547.0
1698923817.3529742,19546.0
1698923817.37347,19548.0
1698923817.3939655,19553.0
1698923817.4144611,19553.0
1698923817.4349568,19569.0
1698923817.4554524,19570.0
1698923817.475948,19580.0
1698923817.4964437,19587.0
1698923817.5169396,19592.0
1698923817.537435,19603.0
1698923817.557931,19608.0
1698923817.5784266,19612.0
1698923817.598922,19622.0
1698923817.6194174,19626.0
1698923817.639913,19629.0
1698923817.660409,19632.0
1698923817.6809044,19626.0
1698923817.7013998,19627.0
1698923817.7218957,19623.0
1698923817.7423913,19616.0
1698923817.7628872,19614.0
1698923817.783383,19610.0
1698923817.8038783,19594.0
1698923817.824374,19592.0
1698923817.8448696,19581.0
1698923817.8653653,19573.0
1698923817.8858612,19565.0
1698923817.9063566,19561.0
1698923817.9268522,19558.0
1698923817.9473479,19553.0
1698923817.9678435,19559.0
1698923817.9883392,19567.0
1698923818.008835,19578.0
1698923818.0293305,19583.0
1698923818.0498261,19601.0
1698923818.0703218,19606.0
1698923818.0908175,19611.0
1698923818.111313,19613.0
1698923818.1318085,19628.0
1698923818.1523044,19628.0
1698923818.1728,19632.0
1698923818.1932957,19637.0
1698923818.2137914,19636.0
1698923818.2342868,19649.0
1698923818.2547824,19655.0
1698923818.2752783,19655.0
1698923818.295774,19652.0
1698923818.3162696,19652.0
1698923818.336765,19649.0
1698923818.3572607,19641.0
1698923818.3777564,19632.0
1698923818.3982522,19616.0
1698923818.418748,19605.0
1698923818.4392433,19585.0
1698923818.459739,19572.0
1698923818.4802346,19564.0
1698923818.5007303,19564.0
1698923818.521226,19549.0
1698923818.5417216,19545.0
1698923818.5622172,19538.0
1698923818.582713,19550.0
1698923818.6032085,19554.0
1698923818.6237042,19560.0
1698923818.6441996,19566.0
1698923818.6646955,19574.0
1698923818.6851912,19579.0
1698923818.7056868,19585.0
1698923818.7261825,19578.0
1698923818.7466779,19589.0
1698923818.7671735,19586.0
1698923818.7876694,19594.0
1698923818.808165,19587.0
1698923818.8286607,19589.0
1698923818.8491561,19586.0
1698923818.869652,19577.0
1698923818.8901477,19573.0
1698923818.910643,19561.0
1698923818.931139,19560.0
1698923818.9516344,19552.0
1698923818.9721298,19542.0
1698923818.9926255,19537.0
1698923819.0131211,19530.0
1698923819.033617,19527.0
1698923819.054113,19528.0
1698923819.0746083,19525.0
1698923819.095104,19518.0
1698923819.1155996,19514.0
1698923819.1360953,19514.0
1698923819.156591,19507.0
1698923819.1770868,19504.0
1698923819.1975825,19507.0
1698923819.218078,19504.0
1698923819.2385736,19508.0
1698923819.2590692,19504.0
1698923819.2795646,19509.0
1698923819.3000603,19513.0
1698923819.3205562,19525.0
1698923819.3410518,19522.0
1698923819.3615475,19531.0
1698923819.382043,19531.0
1698923819.4025385,19531.0
1698923819.4230342,19532.0
1698923819.44353,19529.0
1698923819.4640257,19525.0
1698923819.4845212,19520.0
1698923819.5050168,19515.0
1698923819.5255125,19516.0
1698923819.546008,19513.0
1698923819.566504,19515.0
1698923819.5869994,19509.0
1698923819.607495,19514.0
1698923819.6279907,19512.0
1698923819.6484864,19515.0
1698923819.668982,19519.0
1698923819.6894774,19520.0
1698923819.7099733,19516.0
1698923819.730469,19520.0
1698923819.7509646,19520.0
1698923819.7714603,19520.0
1698923819.7919557,19519.0
1698923819.8124514,19512.0
1698923819.8329473,19503.0
1698923819.853443,19511.0
1698923819.8739386,19508.0
1698923819.894434,19505.0
1698923819.9149296,19514.0
1698923819.9354253,19508.0
1698923819.9559212,19508.0
1698923819.9764168,19505.0
1698923819.9969122,19499.0
1698923820.017408,19497.0
1698923820.0379035,19493.0
1698923820.0583992,19491.0
1698923820.0788949,19496.0
1698923820.0993905,19484.0
1698923820.1198862,19483.0
1698923820.1403818,19481.0
1698923820.1608775,19479.0
1698923820.1813731,19481.0
1698923820.201869,19479.0
1698923820.2223644,19487.0
1698923820.24286,19485.0
1698923820.2633557,19484.0
1698923820.2838514,19482.0
1698923820.304347,19486.0
1698923820.3248422,19488.0
1698923820.3453383,19484.0
1698923820.365834,19486.0
1698923820.3863297,19485.0
1698923820.4068253,19497.0
1698923820.4273207,19498.0
1698923820.4478164,19496.0
1698923820.468312,19489.0
1698923820.4888082,19489.0
1698923820.5093038,19488.0
1698923820.529799,19480.0
1698923820.5502949,19481.0
1698923820.5707903,19473.0
1698923820.591286,19466.0
1698923820.6117816,19466.0
1698923820.632277,19469.0
1698923820.652773,19468.0
1698923820.6732686,19467.0
1698923820.6937642,19463.0
1698923820.7142599,19471.0
1698923820.7347553,19471.0
1698923820.7552512,19468.0
1698923820.7757468,19468.0
1698923820.7962425,19460.0
1698923820.8167381,19455.0
1698923820.8372335,19454.0
1698923820.8577292,19457.0
1698923820.878225,19453.0
1698923820.8987207,19458.0
1698923820.9192164,19459.0
1698923820.9397118,19464.0
1698923820.9602075,19471.0
1698923820.980703,19472.0
1698923821.001199,19475.0
1698923821.0216947,19485.0
1698923821.04219,19488.0
1698923821.0626857,19491.0
1698923821.0831814,19494.0
1698923821.103677,19501.0
1698923821.1241727,19504.0
1698923821.1446683,19504.0
1698923821.165164,19514.0
1698923821.1856596,19525.0
1698923821.2061553,19536.0
1698923821.226651,19544.0
1698923821.2471464,19550.0
1698923821.2676423,19553.0
1698923821.288138,19566.0
1698923821.3086336,19566.0
1698923821.3291292,19570.0
1698923821.3496249,19573.0
1698923821.3701203,19579.0
1698923821.3906162,19577.0
1698923821.4111118,19581.0
1698923821.4316075,19579.0
1698923821.4521031,19579.0
1698923821.4725986,19575.0
1698923821.4930942,19575.0
1698923821.5135899,19575.0
1698923821.5340858,19575.0
1698923821.5545814,19575.0
1698923821.5750768,19573.0
1698923821.5955725,19568.0
1698923821.6160681,19562.0
1698923821.6365638,19554.0
1698923821.6570597,19560.0
1698923821.677555,19552.0
1698923821.6980507,19553.0
1698923821.7185464,19553.0
1698923821.739042,19557.0
1698923821.7595377,19553.0
1698923821.7800333,19549.0
1698923821.800529,19549.0
1698923821.821025,19560.0
1698923821.8415205,19567.0
1698923821.8620162,19566.0
1698923821.8825116,19575.0
1698923821.903007,19576.0
1698923821.923503,19581.0
1698923821.9439983,19575.0
1698923821.964494,19574.0
1698923821.9849894,19574.0
1698923822.0054853,19579.0
1698923822.025981,19580.0
1698923822.0464768,19578.0
1698923822.0669725,19583.0
1698923822.087468,19575.0
1698923822.1079636,19574.0
1698923822.1284592,19563.0
1698923822.1489549,19559.0
1698923822.1694508,19547.0
1698923822.1899462,19547.0
1698923822.2104418,19543.0
1698923822.2309375,19529.0
1698923822.2514331,19527.0
1698923822.2719288,19522.0
1698923822.2924242,19520.0
1698923822.31292,19522.0
1698923822.3334157,19525.0
1698923822.3539114,19532.0
1698923822.374407,19537.0
1698923822.3949027,19545.0
1698923822.4153981,19548.0
1698923822.435894,19552.0
1698923822.4563897,19553.0
1698923822.4768853,19556.0
1698923822.497381,19557.0
1698923822.5178764,19566.0
1698923822.538372,19570.0
1698923822.558868,19572.0
1698923822.5793636,19572.0
1698923822.5998592,19578.0
1698923822.6203547,19581.0
1698923822.6408503,19571.0
1698923822.661346,19570.0
1698923822.6818416,19575.0
1698923822.7023375,19567.0
1698923822.722833,19558.0
1698923822.7433286,19558.0
1698923822.7638242,19554.0
1698923822.7843199,19548.0
1698923822.8048155,19548.0
1698923822.8253112,19549.0
1698923822.8458068,19544.0
1698923822.8663025,19546.0
1698923822.8867981,19547.0
1698923822.9072938,19560.0
1698923822.9277892,19562.0
1698923822.948285,19567.0
1698923822.9687808,19571.0
1698923822.9892764,19571.0
1698923823.009772,19577.0
1698923823.0302675,19568.0
1698923823.0507631,19565.0
1698923823.0712588,19565.0
1698923823.0917547,19564.0
1698923823.1122503,19573.0
1698923823.1327457,19569.0
1698923823.1532416,19569.0
1698923823.173737,19562.0
1698923823.194233,19564.0
1698923823.2147286,19553.0
1698923823.235224,19538.0
1698923823.2557194,19540.0
1698923823.276215,19524.0
1698923823.296711,19514.0
1698923823.3172064,19513.0
1698923823.3377023,19501.0
1698923823.358198,19507.0
1698923823.3786936,19513.0
1698923823.3991892,19520.0
1698923823.419685,19532.0
1698923823.4401803,19545.0
1698923823.460676,19555.0
1698923823.481172,19551.0
1698923823.5016675,19561.0
1698923823.5221632,19565.0
1698923823.5426588,19568.0
1698923823.5631542,19566.0
1698923823.5836499,19582.0
1698923823.6041458,19580.0
1698923823.6246414,19583.0
1698923823.645137,19601.0
1698923823.6656325,19598.0
1698923823.6861281,19606.0
1698923823.7066238,19612.0
1698923823.7271197,19608.0
1698923823.7476153,19592.0
1698923823.7681108,19593.0
1698923823.7886064,19593.0
1698923823.809102,19587.0
1698923823.8295977,19587.0
1698923823.8500934,19587.0
1698923823.870589,19584.0
1698923823.8910847,19583.0
1698923823.9115803,19579.0
1698923823.932076,19584.0
1698923823.9525716,19591.0
1698923823.973067,19596.0
1698923823.993563,19609.0
1698923824.0140586,19622.0
1698923824.0345542,19618.0
1698923824.05505,19627.0
1698923824.0755453,19623.0
1698923824.096041,19626.0
1698923824.1165366,19617.0
1698923824.1370325,19621.0
1698923824.1575282,19627.0
1698923824.1780236,19639.0
1698923824.1985192,19632.0
1698923824.219015,19629.0
1698923824.2395105,19621.0
1698923824.2600064,19626.0
1698923824.2805018,19628.0
1698923824.3009975,19625.0
1698923824.3214931,19630.0
1698923824.3419888,19634.0
1698923824.3624845,19627.0
1698923824.38298,19625.0
1698923824.4034758,19623.0
1698923824.4239714,19630.0
1698923824.444467,19628.0
1698923824.4649627,19617.0
1698923824.4854586,19618.0
1698923824.505954,19617.0
1698923824.5264497,19612.0
1698923824.5469453,19609.0
1698923824.567441,19603.0
1698923824.5879362,19599.0
1698923824.6084318,19607.0
1698923824.6289275,19603.0
1698923824.6494236,19612.0
1698923824.6699193,19614.0
1698923824.690415,19614.0
1698923824.7109103,19620.0
1698923824.731406,19623.0
1698923824.7519016,19631.0
1698923824.7723978,19637.0
1698923824.7928932,19649.0
1698923824.8133888,19657.0
1698923824.8338845,19653.0
1698923824.85438,19655.0
1698923824.8748755,19644.0
1698923824.8953712,19641.0
1698923824.9158669,19635.0
1698923824.9363623,19630.0
1698923824.9568582,19627.0
1698923824.9773538,19626.0
1698923824.9978495,19617.0
1698923825.0183449,19616.0
1698923825.0388408,19614.0
1698923825.0593364,19614.0
1698923825.079832,19618.0
1698923825.1003277,19613.0
1698923825.1208231,19625.0
1698923825.1413188,19628.0
1698923825.1618147,19635.0
1698923825.1823103,19634.0
1698923825.202806,19641.0
1698923825.2233014,19644.0
1698923825.243797,19644.0
1698923825.2642927,19650.0
1698923825.2847884,19659.0
1698923825.3052843,19659.0
1698923825.3257797,19665.0
1698923825.3462753,19661.0
1698923825.366771,19663.0
1698923825.3872666,19659.0
1698923825.4077623,19661.0
1698923825.428258,19657.0
1698923825.4487536,19648.0
1698923825.4692492,19649.0
1698923825.489745,19647.0
1698923825.5102406,19646.0
1698923825.530736,19639.0
1698923825.5512319,19639.0
1698923825.5717275,19642.0
1698923825.5922232,19636.0
1698923825.6127188,19630.0
1698923825.6332145,19641.0
1698923825.65371,19638.0
1698923825.6742055,19639.0
1698923825.6947014,19639.0
1698923825.715197,19647.0
1698923825.7356927,19646.0
1698923825.7561882,19650.0
1698923825.7766838,19648.0
1698923825.7971795,19656.0
1698923825.8176754,19652.0
1698923825.838171,19662.0
1698923825.8586664,19650.0
1698923825.879162,19655.0
1698923825.8996577,19670.0
1698923825.9201534,19667.0
1698923825.9406493,19671.0
1698923825.9611447,19672.0
1698923825.9816403,19674.0
1698923826.002136,19669.0
1698923826.0226316,19667.0
1698923826.0431273,19659.0
1698923826.0636227,19659.0
1698923826.0841188,19651.0
1698923826.1046145,19653.0
1698923826.1251101,19650.0
1698923826.1456058,19650.0
1698923826.166101,19648.0
1698923826.1865966,19657.0
1698923826.2070923,19655.0
1698923826.227588,19667.0
1698923826.2480836,19670.0
1698923826.268579,19678.0
1698923826.289075,19691.0
1698923826.3095706,19701.0
1698923826.3300664,19707.0
1698923826.350562,19708.0
1698923826.3710575,19709.0
1698923826.3915532,19715.0
1698923826.4120488,19715.0
1698923826.4325445,19720.0
1698923826.4530401,19726.0
1698923826.4735358,19734.0
1698923826.4940314,19722.0
1698923826.514527,19722.0
1698923826.5350227,19717.0
1698923826.5555184,19715.0
1698923826.5760138,19712.0
1698923826.5965097,19703.0
1698923826.6170053,19712.0
1698923826.637501,19705.0
1698923826.6579967,19703.0
1698923826.678492,19702.0
1698923826.6989877,19699.0
1698923826.7194836,19705.0
1698923826.7399793,19703.0
1698923826.760475,19700.0
1698923826.7809706,19709.0
1698923826.801466,19707.0
1698923826.8219616,19699.0
1698923826.8424573,19699.0
1698923826.8629532,19704.0
1698923826.8834488,19708.0
1698923826.9039443,19706.0
1698923826.92444,19715.0
1698923826.9449356,19713.0
1698923826.9654312,19720.0
1698923826.985927,19722.0
1698923827.0064225,19727.0
1698923827.0269182,19729.0
1698923827.0474138,19726.0
1698923827.0679095,19724.0
1698923827.0884051,19730.0
1698923827.1089008,19727.0
1698923827.1293964,19728.0
1698923827.149892,19720.0
1698923827.1703877,19717.0
1698923827.1908834,19716.0
1698923827.2113788,19710.0
1698923827.2318745,19706.0
1698923827.2523704,19705.0
1698923827.272866,19704.0
1698923827.2933617,19697.0
1698923827.313857,19701.0
1698923827.3343527,19701.0
1698923827.3548484,19706.0
1698923827.3753443,19706.0
1698923827.39584,19711.0
1698923827.4163353,19716.0
1698923827.436831,19719.0
1698923827.457327,19723.0
1698923827.4778225,19732.0
1698923827.4983182,19742.0
1698923827.5188136,19742.0
1698923827.539309,19744.0
1698923827.559805,19750.0
1698923827.5803003,19742.0
1698923827.600796,19745.0
1698923827.6212914,19742.0
1698923827.6417875,19742.0
1698923827.6622832,19737.0
1698923827.6827788,19741.0
1698923827.7032745,19738.0
1698923827.72377,19734.0
1698923827.7442656,19738.0
1698923827.7647617,19742.0
1698923827.785257,19739.0
1698923827.8057528,19739.0
1698923827.8262484,19735.0
1698923827.8467438,19734.0
1698923827.8672395,19735.0
1698923827.8877351,19733.0
1698923827.908231,19731.0
1698923827.9287267,19738.0
1698923827.949222,19735.0
1698923827.9697177,19736.0
1698923827.9902134,19730.0
1698923828.010709,19742.0
1698923828.031205,19747.0
1698923828.0517004,19748.0
1698923828.072196,19759.0
1698923828.0926917,19761.0
1698923828.1131873,19763.0
1698923828.133683,19764.0
1698923828.1541786,19765.0
1698923828.1746743,19760.0
1698923828.19517,19760.0
1698923828.2156656,19756.0
1698923828.2361612,19756.0
1698923828.2566566,19761.0
1698923828.2771523,19760.0
1698923828.2976482,19753.0
1698923828.3181438,19749.0
1698923828.3386395,19753.0
1698923828.359135,19753.0
1698923828.3796306,19751.0
1698923828.4001262,19756.0
1698923828.420622,19751.0
1698923828.4411178,19754.0
1698923828.4616132,19758.0
1698923828.4821088,19763.0
1698923828.5026045,19769.0
1698923828.5231001,19773.0
1698923828.543596,19779.0
1698923828.5640914,19783.0
1698923828.584587,19787.0
1698923828.6050828,19792.0
1698923828.6255784,19786.0
1698923828.646074,19787.0
1698923828.6665695,19781.0
1698923828.6870654,19774.0
1698923828.707561,19766.0
1698923828.7280567,19760.0
1698923828.7485523,19762.0
1698923828.7690482,19753.0
1698923828.7895436,19745.0
1698923828.8100393,19747.0
1698923828.830535,19748.0
1698923828.8510306,19751.0
1698923828.8715258,19750.0
1698923828.8920214,19747.0
1698923828.912517,19749.0
1698923828.9330132,19747.0
1698923828.9535089,19741.0
1698923828.9740045,19747.0
1698923828.9945,19744.0
1698923829.0149956,19744.0
1698923829.0354912,19748.0
1698923829.055987,19742.0
1698923829.076483,19744.0
1698923829.0969784,19751.0
1698923829.117474,19749.0
1698923829.1379695,19748.0
1698923829.1584651,19753.0
1698923829.1789608,19752.0
1698923829.1994562,19754.0
1698923829.2199519,19758.0
1698923829.2404478,19757.0
1698923829.2609434,19751.0
1698923829.281439,19744.0
1698923829.3019345,19747.0
1698923829.3224304,19749.0
1698923829.342926,19747.0
1698923829.3634217,19742.0
1698923829.3839173,19745.0
1698923829.4044127,19740.0
1698923829.4249084,19746.0
1698923829.445404,19737.0
1698923829.4659,19733.0
1698923829.4863956,19742.0
1698923829.506891,19741.0
1698923829.5273867,19741.0
1698923829.5478823,19745.0
1698923829.568378,19737.0
1698923829.5888739,19736.0
1698923829.6093693,19737.0
1698923829.629865,19735.0
1698923829.6503606,19742.0
1698923829.6708562,19740.0
1698923829.691352,19751.0
1698923829.7118475,19758.0
1698923829.7323432,19755.0
1698923829.7528389,19760.0
1698923829.7733345,19756.0
1698923829.7938302,19752.0
1698923829.8143256,19747.0
1698923829.8348212,19750.0
1698923829.855317,19747.0
1698923829.8758128,19736.0
1698923829.8963084,19741.0
1698923829.9168038,19732.0
1698923829.9372995,19734.0
1698923829.9577951,19734.0
1698923829.978291,19730.0
1698923829.9987867,19730.0
1698923830.0192823,19741.0
1698923830.0397778,19732.0
1698923830.0602734,19731.0
1698923830.080769,19732.0
1698923830.101265,19734.0
1698923830.1217606,19726.0
1698923830.142256,19718.0
1698923830.1627517,19720.0
1698923830.1832473,19723.0
1698923830.203743,19721.0
1698923830.2242384,19720.0
1698923830.2447343,19722.0
1698923830.26523,19714.0
1698923830.2857256,19731.0
1698923830.3062212,19731.0
1698923830.326717,19736.0
1698923830.3472123,19738.0
1698923830.3677084,19729.0
1698923830.388204,19733.0
1698923830.4086998,19741.0
1698923830.4291952,19743.0
1698923830.4496908,19745.0
1698923830.4701862,19742.0
1698923830.490682,19746.0
1698923830.5111775,19745.0
1698923830.5316732,19747.0
1698923830.5521688,19750.0
1698923830.5726645,19747.0
1698923830.5931602,19742.0
1698923830.6136558,19739.0
1698923830.6341517,19747.0
1698923830.654647,19744.0
1698923830.6751428,19749.0
1698923830.6956384,19752.0
1698923830.716134,19749.0
1698923830.7366297,19756.0
1698923830.7571254,19758.0
1698923830.777621,19774.0
1698923830.7981167,19775.0
1698923830.8186123,19780.0
1698923830.839108,19793.0
1698923830.8596034,19796.0
1698923830.880099,19802.0
1698923830.900595,19808.0
1698923830.9210906,19810.0
1698923830.9415863,19812.0
1698923830.9620817,19806.0
1698923830.9825773,19799.0
1698923831.003073,19796.0
1698923831.0235689,19788.0
1698923831.0440645,19780.0
1698923831.0645602,19779.0
1698923831.0850556,19774.0
1698923831.1055512,19770.0
1698923831.126047,19772.0
1698923831.1465428,19774.0
1698923831.1670384,19778.0
1698923831.1875339,19776.0
1698923831.2080295,19772.0
1698923831.2285252,19770.0
1698923831.2490208,19764.0
1698923831.2695165,19763.0
1698923831.2900121,19760.0
1698923831.3105078,19756.0
1698923831.3310034,19760.0
1698923831.351499,19758.0
1698923831.3719947,19763.0
1698923831.3924901,19762.0
1698923831.412986,19765.0
1698923831.4334817,19761.0
1698923831.4539773,19771.0
1698923831.474473,19772.0
1698923831.4949684,19772.0
1698923831.515464,19773.0
1698923831.53596,19772.0
1698923831.5564556,19771.0
1698923831.5769513,19774.0
1698923831.5974467,19775.0
1698923831.6179423,19774.0
1698923831.638438,19771.0
1698923831.6589336,19773.0
1698923831.6794295,19770.0
1698923831.699925,19773.0
1698923831.7204208,19771.0
1698923831.7409165,19774.0
1698923831.7614121,19769.0
1698923831.7819078,19769.0
1698923831.8024032,19772.0
1698923831.8228989,19765.0
1698923831.8433943,19765.0
1698923831.86389,19768.0
1698923831.8843856,19769.0
1698923831.904881,19774.0
1698923831.9253771,19774.0
1698923831.9458728,19780.0
1698923831.9663684,19785.0
1698923831.986864,19791.0
1698923832.0073595,19795.0
1698923832.0278552,19799.0
1698923832.0483508,19804.0
1698923832.0688467,19802.0
1698923832.0893424,19806.0
1698923832.109838,19809.0
1698923832.1303334,19812.0
1698923832.150829,19811.0
1698923832.1713247,19810.0
1698923832.1918206,19807.0
1698923832.2123163,19812.0
1698923832.2328117,19806.0
1698923832.2533073,19809.0
1698923832.273803,19806.0
1698923832.2942986,19809.0
1698923832.3147945,19816.0
1698923832.33529,19812.0
1698923832.3557856,19807.0
1698923832.3762813,19802.0
1698923832.396777,19801.0
1698923832.4172726,19793.0
1698923832.437768,19798.0
1698923832.4582639,19799.0
1698923832.4787595,19797.0
1698923832.4992552,19799.0
1698923832.5197508,19795.0
1698923832.5402462,19791.0
1698923832.560742,19788.0
1698923832.5812378,19784.0
1698923832.6017334,19785.0
1698923832.622229,19783.0
1698923832.6427245,19790.0
1698923832.6632202,19791.0
1698923832.6837158,19788.0
1698923832.7042117,19790.0
1698923832.7247074,19796.0
1698923832.7452028,19792.0
1698923832.7656984,19787.0
1698923832.786194,19791.0
1698923832.8066897,19790.0
1698923832.8271854,19796.0
1698923832.847681,19798.0
1698923832.8681767,19791.0
1698923832.8886724,19791.0
1698923832.909168,19789.0
1698923832.9296637,19787.0
1698923832.950159,19790.0
1698923832.970655,19785.0
1698923832.9911506,19788.0
1698923833.0116463,19793.0
1698923833.032142,19792.0
1698923833.0526376,19798.0
1698923833.073133,19809.0
1698923833.093629,19813.0
1698923833.1141245,19813.0
1698923833.1346202,19811.0
1698923833.1551154,19824.0
1698923833.175611,19827.0
1698923833.196107,19844.0
1698923833.2166023,19860.0
1698923833.2370985,19866.0
1698923833.257594,19867.0
1698923833.2780895,19871.0
1698923833.2985852,19872.0
1698923833.3190808,19871.0
1698923833.3395765,19875.0
1698923833.3600726,19878.0
1698923833.380568,19874.0
1698923833.4010637,19876.0
1698923833.421559,19875.0
1698923833.4420547,19870.0
1698923833.4625504,19878.0
1698923833.4830458,19877.0
1698923833.5035415,19871.0
1698923833.5240374,19865.0
1698923833.544533,19861.0
1698923833.5650287,19860.0
1698923833.585524,19859.0
1698923833.6060197,19859.0
1698923833.6265156,19856.0
1698923833.6470113,19855.0
1698923833.667507,19850.0
1698923833.6880023,19843.0
1698923833.708498,19841.0
1698923833.7289937,19839.0
1698923833.7494895,19835.0
1698923833.7699852,19840.0
1698923833.7904806,19846.0
1698923833.8109763,19845.0
1698923833.831472,19846.0
1698923833.8519676,19853.0
1698923833.8724635,19850.0
1698923833.8929589,19847.0
1698923833.9134545,19850.0
1698923833.9339502,19853.0
1698923833.9544458,19853.0
1698923833.9749415,19857.0
1698923833.995437,19855.0
1698923834.0159328,19852.0
1698923834.0364285,19852.0
1698923834.056924,19853.0
1698923834.0774198,19851.0
1698923834.0979152,19852.0
1698923834.1184108,19848.0
1698923834.1389067,19855.0
1698923834.1594024,19860.0
1698923834.179898,19863.0
1698923834.2003934,19856.0
1698923834.220889,19863.0
1698923834.2413847,19863.0
1698923834.2618804,19863.0
1698923834.2823763,19867.0
1698923834.302872,19870.0
1698923834.3233674,19878.0
1698923834.343863,19888.0
1698923834.3643587,19894.0
1698923834.3848543,19892.0
1698923834.4053502,19894.0
1698923834.4258456,19892.0
1698923834.4463413,19895.0
1698923834.466837,19897.0
1698923834.4873326,19898.0
1698923834.507828,19903.0
1698923834.528324,19907.0
1698923834.5488195,19914.0
1698923834.5693152,19915.0
1698923834.5898108,19905.0
1698923834.6103065,19918.0
1698923834.630802,19923.0
1698923834.6512976,19917.0
1698923834.6717937,19915.0
1698923834.692289,19915.0
1698923834.712785,19911.0
1698923834.7332804,19910.0
1698923834.7537758,19906.0
1698923834.7742715,19900.0
1698923834.7947671,19890.0
1698923834.815263,19885.0
1698923834.8357582,19885.0
1698923834.856254,19879.0
1698923834.8767498,19878.0
1698923834.8972454,19878.0
1698923834.9177413,19880.0
1698923834.9382367,19882.0
1698923834.9587324,19880.0
1698923834.979228,19882.0
1698923834.9997237,19886.0
1698923835.0202193,19891.0
1698923835.0407147,19896.0
1698923835.0612106,19899.0
1698923835.0817063,19906.0
1698923835.102202,19907.0
1698923835.1226976,19901.0
1698923835.143193,19911.0
1698923835.1636887,19902.0
1698923835.1841846,19907.0
1698923835.2046802,19908.0
1698923835.2251759,19908.0
1698923835.2456713,19905.0
1698923835.266167,19908.0
1698923835.2866626,19912.0
1698923835.3071585,19911.0
1698923835.3276541,19906.0
1698923835.3481498,19905.0
1698923835.3686452,19901.0
1698923835.3891408,19903.0
1698923835.4096365,19901.0
1698923835.4301322,19893.0
1698923835.450628,19900.0
1698923835.4711235,19899.0
1698923835.491619,19894.0
1698923835.5121148,19897.0
1698923835.5326104,19897.0
1698923835.553106,19894.0
1698923835.5736017,19894.0
1698923835.5940974,19893.0
1698923835.614593,19891.0
1698923835.6350887,19892.0
1698923835.6555843,19891.0
1698923835.6760798,19896.0
1698923835.6965756,19893.0
1698923835.7170713,19889.0
1698923835.737567,19896.0
1698923835.7580626,19893.0
1698923835.778558,19894.0
1698923835.7990537,19899.0
1698923835.8195493,19898.0
1698923835.8400452,19906.0
1698923835.8605409,19901.0
1698923835.8810363,19897.0
1698923835.901532,19891.0
1698923835.9220276,19893.0
1698923835.9425232,19897.0
1698923835.9630191,19907.0
1698923835.9835145,19906.0
1698923836.0040104,19913.0
1698923836.024506,19913.0
1698923836.0450017,19910.0
1698923836.0654972,19922.0
1698923836.0859928,19941.0
1698923836.1064882,19946.0
1698923836.126984,19957.0
1698923836.1474795,19964.0
1698923836.1679752,19988.0
1698923836.1884708,20010.0
1698923836.2089665,20040.0
1698923836.2294624,20084.0
1698923836.249958,20133.0
1698923836.2704537,20180.0
1698923836.290949,20226.0
1698923836.3114448,20251.0
1698923836.3319404,20260.0
1698923836.3524363,20262.0
1698923836.372932,20262.0
1698923836.3934274,20261.0
1698923836.413923,20271.0
1698923836.4344187,20284.0
1698923836.4549143,20284.0
1698923836.4754102,20297.0
1698923836.4959059,20304.0
1698923836.5164013,20312.0
1698923836.536897,20341.0
1698923836.5573926,20372.0
1698923836.5778883,20408.0
1698923836.598384,20452.0
1698923836.6188796,20483.0
1698923836.6393752,20521.0
1698923836.6598709,20564.0
1698923836.6803665,20602.0
1698923836.7008622,20637.0
1698923836.7213576,20670.0
1698923836.7418535,20701.0
1698923836.7623491,20731.0
1698923836.7828448,20764.0
1698923836.8033404,20798.0
1698923836.8238358,20834.0
1698923836.8443315,20861.0
1698923836.8648274,20890.0
1698923836.885323,20919.0
1698923836.9058187,20954.0
1698923836.926314,20988.0
1698923836.9468098,21011.0
1698923836.9673054,21033.0
1698923836.987801,21053.0
1698923837.008297,21079.0
1698923837.0287924,21100.0
1698923837.049288,21120.0
1698923837.0697837,21147.0
1698923837.0902793,21160.0
1698923837.110775,21178.0
1698923837.1312706,21182.0
1698923837.1517663,21196.0
1698923837.172262,21203.0
1698923837.1927576,21207.0
1698923837.2132533,21216.0
1698923837.2337487,21222.0
1698923837.2542446,21229.0
1698923837.2747402,21239.0
1698923837.2952359,21250.0
1698923837.3157315,21258.0
1698923837.336227,21275.0
1698923837.3567228,21275.0
1698923837.3772185,21273.0
1698923837.3977141,21284.0
1698923837.4182098,21291.0
1698923837.438705,21294.0
1698923837.4592009,21317.0
1698923837.4796963,21328.0
1698923837.500192,21346.0
1698923837.520688,21355.0
1698923837.5411837,21363.0
1698923837.5616791,21375.0
1698923837.5821748,21385.0
1698923837.6026704,21398.0
1698923837.623166,21400.0
1698923837.6436617,21418.0
1698923837.6641576,21424.0
1698923837.684653,21430.0
1698923837.7051487,21442.0
1698923837.7256444,21451.0
1698923837.74614,21453.0
1698923837.7666354,21466.0
1698923837.787131,21471.0
1698923837.807627,21473.0
1698923837.8281226,21484.0
1698923837.8486183,21487.0
1698923837.8691137,21489.0
1698923837.8896093,21491.0
1698923837.9101052,21495.0
1698923837.930601,21502.0
1698923837.9510965,21510.0
1698923837.971592,21516.0
1698923837.9920876,21522.0
1698923838.0125833,21526.0
1698923838.033079,21535.0
1698923838.0535748,21547.0
1698923838.0740702,21544.0
1698923838.0945659,21550.0
1698923838.1150615,21549.0
1698923838.1355572,21549.0
1698923838.1560528,21552.0
1698923838.1765485,21547.0
1698923838.1970441,21550.0
1698923838.2175398,21557.0
1698923838.2380354,21561.0
1698923838.258531,21558.0
1698923838.2790265,21561.0
1698923838.2995224,21569.0
1698923838.320018,21570.0
1698923838.3405137,21573.0
1698923838.3610094,21574.0
1698923838.3815048,21573.0
1698923838.4020004,21577.0
1698923838.422496,21581.0
1698923838.442992,21585.0
1698923838.4634876,21589.0
1698923838.483983,21589.0
1698923838.5044787,21595.0
1698923838.5249743,21597.0
1698923838.54547,21602.0
1698923838.565966,21598.0
1698923838.5864615,21610.0
1698923838.606957,21614.0
1698923838.6274526,21617.0
1698923838.6479483,21614.0
1698923838.668444,21613.0
1698923838.6889398,21615.0
1698923838.7094352,21621.0
1698923838.7299309,21614.0
1698923838.7504265,21615.0
1698923838.7709222,21618.0
1698923838.7914176,21620.0
1698923838.811913,21619.0
1698923838.8324091,21613.0
1698923838.8529048,21620.0
1698923838.8734004,21619.0
1698923838.893896,21617.0
1698923838.9143915,21623.0
1698923838.9348872,21628.0
1698923838.955383,21621.0
1698923838.975879,21618.0
1698923838.9963746,21616.0
1698923839.01687,21614.0
1698923839.0373654,21610.0
1698923839.057861,21619.0
1698923839.078357,21616.0
1698923839.0988524,21624.0
1698923839.1193478,21627.0
1698923839.1398437,21630.0
1698923839.1603394,21633.0
1698923839.180835,21643.0
1698923839.2013307,21635.0
1698923839.2218263,21648.0
1698923839.242322,21637.0
1698923839.2628176,21641.0
1698923839.2833133,21642.0
1698923839.303809,21645.0
1698923839.3243043,21643.0
1698923839.3448002,21645.0
1698923839.365296,21641.0
1698923839.3857915,21644.0
1698923839.4062872,21646.0
1698923839.4267826,21646.0
1698923839.4472783,21648.0
1698923839.4677742,21650.0
1698923839.4882698,21653.0
1698923839.5087655,21650.0
1698923839.5292609,21656.0
1698923839.5497565,21663.0
1698923839.5702522,21662.0
1698923839.5907478,21657.0
1698923839.6112437,21660.0
1698923839.6317391,21666.0
1698923839.6522348,21666.0
1698923839.6727304,21676.0
1698923839.693226,21678.0
1698923839.7137218,21670.0
1698923839.7342176,21669.0
1698923839.754713,21677.0
1698923839.7752087,21674.0
1698923839.7957044,21678.0
1698923839.8162,21683.0
1698923839.8366957,21684.0
1698923839.8571913,21682.0
1698923839.877687,21684.0
1698923839.8981826,21681.0
1698923839.9186783,21682.0
1698923839.939174,21686.0
1698923839.9596694,21682.0
1698923839.980165,21680.0
1698923840.000661,21676.0
1698923840.0211565,21677.0
1698923840.0416522,21678.0
1698923840.0621476,21680.0
1698923840.0826433,21680.0
1698923840.103139,21677.0
1698923840.1236348,21683.0
1698923840.1441305,21672.0
1698923840.164626,21674.0
1698923840.1851215,21678.0
1698923840.2056172,21682.0
1698923840.2261128,21679.0
1698923840.2466087,21680.0
1698923840.2671041,21682.0
1698923840.2876,21681.0
1698923840.3080957,21677.0
1698923840.328591,21684.0
1698923840.349087,21686.0
1698923840.3695824,21691.0
1698923840.3900778,21686.0
1698923840.4105735,21687.0
1698923840.4310691,21687.0
1698923840.451565,21688.0
1698923840.4720602,21689.0
1698923840.492556,21681.0
1698923840.513052,21685.0
1698923840.5335476,21684.0
1698923840.5540433,21679.0
1698923840.5745387,21689.0
1698923840.5950344,21679.0
1698923840.61553,21689.0
1698923840.636026,21686.0
1698923840.6565216,21691.0
1698923840.677017,21693.0
1698923840.6975126,21690.0
1698923840.7180083,21688.0
1698923840.738504,21690.0
1698923840.7589996,21694.0
1698923840.7794955,21693.0
1698923840.799991,21697.0
1698923840.8204865,21698.0
1698923840.8409822,21700.0
1698923840.8614779,21707.0
1698923840.8819735,21704.0
1698923840.9024692,21711.0
1698923840.9229648,21710.0
1698923840.9434605,21711.0
1698923840.963956,21711.0
1698923840.9844518,21714.0
1698923841.0049472,21708.0
1698923841.0254428,21704.0
1698923841.0459387,21701.0
1698923841.0664344,21707.0
1698923841.08693,21708.0
1698923841.1074255,21712.0
1698923841.127921,21710.0
1698923841.1484168,21712.0
1698923841.1689126,21710.0
1698923841.1894083,21710.0
1698923841.2099037,21715.0
1698923841.2303994,21707.0
1698923841.250895,21710.0
1698923841.2713907,21712.0
1698923841.2918866,21712.0
1698923841.312382,21710.0
1698923841.3328776,21715.0
1698923841.3533733,21716.0
1698923841.373869,21720.0
1698923841.3943646,21724.0
1698923841.41486,21725.0
1698923841.435356,21724.0
1698923841.4558516,21724.0
1698923841.4763472,21729.0
1698923841.4968429,21722.0
1698923841.5173383,21726.0
1698923841.537834,21728.0
1698923841.5583298,21725.0
1698923841.5788255,21730.0
1698923841.5993211,21726.0
1698923841.6198168,21728.0
1698923841.6403124,21722.0
1698923841.660808,21733.0
1698923841.6813037,21725.0
1698923841.7017994,21730.0
1698923841.7222948,21730.0
1698923841.7427902,21733.0
1698923841.7632859,21735.0
1698923841.7837815,21738.0
1698923841.8042772,21735.0
1698923841.8247733,21732.0
1698923841.8452687,21733.0
1698923841.8657644,21742.0
1698923841.88626,21738.0
1698923841.9067557,21745.0
1698923841.9272513,21746.0
1698923841.947747,21745.0
1698923841.968243,21748.0
1698923841.9887383,21746.0
1698923842.009234,21746.0
1698923842.0297296,21747.0
1698923842.050225,21754.0
1698923842.070721,21752.0
1698923842.0912166,21753.0
1698923842.1117122,21752.0
1698923842.1322079,21753.0
1698923842.1527033,21757.0
1698923842.173199,21762.0
1698923842.1936946,21759.0
1698923842.2141905,21757.0
1698923842.2346861,21750.0
1698923842.2551816,21759.0
1698923842.2756772,21762.0
1698923842.2961729,21761.0
1698923842.3166685,21758.0
1698923842.3371644,21754.0
1698923842.3576598,21764.0
1698923842.3781555,21760.0
1698923842.3986511,21766.0
1698923842.4191468,21776.0
1698923842.4396424,21764.0
1698923842.460138,21767.0
1698923842.4806337,21768.0
1698923842.5011294,21766.0
1698923842.521625,21768.0
1698923842.5421207,21774.0
1698923842.562616,21773.0
1698923842.5831118,21777.0
1698923842.6036077,21779.0
1698923842.6241033,21775.0
1698923842.644599,21780.0
1698923842.6650944,21779.0
1698923842.68559,21780.0
1698923842.7060857,21786.0
1698923842.7265816,21783.0
1698923842.7470772,21790.0
1698923842.7675726,21786.0
1698923842.7880683,21788.0
1698923842.808564,21791.0
1698923842.8290596,21791.0
1698923842.8495555,21785.0
1698923842.870051,21790.0
1698923842.8905466,21792.0
1698923842.9110422,21794.0
1698923842.9315379,21796.0
1698923842.9520335,21801.0
1698923842.972529,21796.0
1698923842.9930248,21803.0
