timestamp,ppg
1698411971.001215,14096.0
1698411971.0216591,14090.0
1698411971.042103,14080.0
1698411971.062547,14070.0
1698411971.082991,14066.0
1698411971.1034348,14058.0
1698411971.123879,14055.0
1698411971.1443229,14048.0
1698411971.1647666,14039.0
1698411971.1852107,14038.0
1698411971.2056544,14032.0
1698411971.2260983,14026.0
1698411971.2465425,14020.0
1698411971.2669864,14009.0
1698411971.2874305,14011.0
1698411971.3078744,14001.0
1698411971.328318,14001.0
1698411971.3487623,13995.0
1698411971.369206,13987.0
1698411971.3896499,13979.0
1698411971.410094,13971.0
1698411971.430538,13956.0
1698411971.4509819,13939.0
1698411971.4714258,13930.0
1698411971.4918697,13914.0
1698411971.5123136,13902.0
1698411971.5327575,13889.0
1698411971.5532014,13883.0
1698411971.5736456,13859.0
1698411971.5940893,13852.0
1698411971.6145334,13844.0
1698411971.6349773,13831.0
1698411971.6554213,13824.0
1698411971.6758652,13812.0
1698411971.696309,13805.0
1698411971.716753,13795.0
1698411971.737197,13785.0
1698411971.7576408,13777.0
1698411971.778085,13763.0
1698411971.798529,13756.0
1698411971.8189728,13750.0
1698411971.8394167,13738.0
1698411971.8598607,13726.0
1698411971.8803043,13721.0
1698411971.9007483,13716.0
1698411971.9211924,13701.0
1698411971.9416366,13693.0
1698411971.9620802,13680.0
1698411971.9825242,13675.0
1698411972.0029685,13675.0
1698411972.0234122,13667.0
1698411972.043856,13666.0
1698411972.0643,13672.0
1698411972.084744,13681.0
1698411972.105188,13687.0
1698411972.1256318,13697.0
1698411972.1460757,13710.0
1698411972.1665199,13723.0
1698411972.1869636,13745.0
1698411972.2074077,13767.0
1698411972.2278516,13784.0
1698411972.2482953,13801.0
1698411972.2687395,13819.0
1698411972.2891831,13838.0
1698411972.3096273,13858.0
1698411972.3300712,13866.0
1698411972.3505151,13880.0
1698411972.370959,13884.0
1698411972.391403,13888.0
1698411972.4118469,13879.0
1698411972.432291,13867.0
1698411972.452735,13862.0
1698411972.4731786,13858.0
1698411972.4936228,13849.0
1698411972.514067,13845.0
1698411972.5345106,13842.0
1698411972.5549545,13842.0
1698411972.5753984,13831.0
1698411972.5958424,13821.0
1698411972.6162863,13810.0
1698411972.6367302,13800.0
1698411972.6571743,13787.0
1698411972.6776183,13779.0
1698411972.698062,13766.0
1698411972.718506,13761.0
1698411972.73895,13743.0
1698411972.759394,13737.0
1698411972.7798378,13726.0
1698411972.8002815,13716.0
1698411972.820726,13707.0
1698411972.8411696,13702.0
1698411972.8616135,13688.0
1698411972.8820577,13681.0
1698411972.9025018,13675.0
1698411972.9229455,13670.0
1698411972.9433894,13665.0
1698411972.9638333,13657.0
1698411972.984277,13650.0
1698411973.0047212,13637.0
1698411973.025165,13637.0
1698411973.0456092,13626.0
1698411973.066053,13625.0
1698411973.086497,13615.0
1698411973.106941,13616.0
1698411973.1273847,13606.0
1698411973.1478288,13599.0
1698411973.1682727,13596.0
1698411973.1887167,13588.0
1698411973.2091606,13584.0
1698411973.2296045,13574.0
1698411973.2500486,13565.0
1698411973.2704923,13557.0
1698411973.2909362,13544.0
1698411973.3113804,13532.0
1698411973.3318243,13523.0
1698411973.352268,13506.0
1698411973.3727121,13496.0
1698411973.393156,13486.0
1698411973.4136002,13476.0
1698411973.434044,13466.0
1698411973.4544878,13456.0
1698411973.474932,13451.0
1698411973.4953754,13447.0
1698411973.5158195,13436.0
1698411973.5362637,13425.0
1698411973.5567076,13417.0
1698411973.5771515,13407.0
1698411973.5975957,13401.0
1698411973.6180394,13397.0
1698411973.6384833,13385.0
1698411973.6589272,13378.0
1698411973.679371,13371.0
1698411973.6998153,13368.0
1698411973.720259,13364.0
1698411973.740703,13351.0
1698411973.761147,13349.0
1698411973.781591,13339.0
1698411973.8020349,13338.0
1698411973.8224788,13327.0
1698411973.8429227,13326.0
1698411973.8633666,13323.0
1698411973.8838103,13320.0
1698411973.9042547,13313.0
1698411973.9246986,13308.0
1698411973.9451423,13301.0
1698411973.9655864,13296.0
1698411973.9860306,13290.0
1698411974.006474,13288.0
1698411974.0269182,13281.0
1698411974.047362,13278.0
1698411974.0678062,13275.0
1698411974.08825,13269.0
1698411974.1086938,13264.0
1698411974.129138,13263.0
1698411974.1495817,13255.0
1698411974.1700258,13251.0
1698411974.1904695,13242.0
1698411974.2109137,13231.0
1698411974.2313576,13225.0
1698411974.2518015,13214.0
1698411974.2722454,13208.0
1698411974.2926898,13196.0
1698411974.3131332,13192.0
1698411974.3335774,13187.0
1698411974.3540213,13181.0
1698411974.374465,13177.0
1698411974.3949091,13171.0
1698411974.415353,13163.0
1698411974.435797,13158.0
1698411974.456241,13154.0
1698411974.4766848,13150.0
1698411974.497129,13146.0
1698411974.5175726,13135.0
1698411974.5380166,13138.0
1698411974.5584607,13127.0
1698411974.5789044,13129.0
1698411974.5993483,13126.0
1698411974.6197925,13118.0
1698411974.6402364,13113.0
1698411974.6606805,13116.0
1698411974.6811244,13105.0
1698411974.7015681,13104.0
1698411974.7220123,13096.0
1698411974.742456,13095.0
1698411974.7628999,13096.0
1698411974.783344,13093.0
1698411974.803788,13090.0
1698411974.8242319,13088.0
1698411974.8446758,13084.0
1698411974.8651197,13076.0
1698411974.8855636,13079.0
1698411974.9060075,13072.0
1698411974.9264514,13072.0
1698411974.9468956,13072.0
1698411974.9673393,13067.0
1698411974.9877834,13063.0
1698411975.0082273,13063.0
1698411975.028671,13059.0
1698411975.0491152,13055.0
1698411975.069559,13049.0
1698411975.090003,13046.0
1698411975.110447,13042.0
1698411975.1308908,13034.0
1698411975.151335,13028.0
1698411975.171779,13023.0
1698411975.1922228,13015.0
1698411975.2126667,13009.0
1698411975.2331107,13000.0
1698411975.2535543,12993.0
1698411975.2739983,12988.0
1698411975.2944424,12984.0
1698411975.3148866,12980.0
1698411975.3353302,12975.0
1698411975.3557742,12967.0
1698411975.3762186,12968.0
1698411975.396662,12967.0
1698411975.417106,12968.0
1698411975.43755,12965.0
1698411975.457994,12969.0
1698411975.478438,12972.0
1698411975.4988818,12971.0
1698411975.5193257,12977.0
1698411975.53977,12982.0
1698411975.5602136,12991.0
1698411975.5806577,12994.0
1698411975.6011016,12999.0
1698411975.6215453,13005.0
1698411975.6419895,13016.0
1698411975.6624331,13021.0
1698411975.6828773,13030.0
1698411975.7033212,13035.0
1698411975.7237651,13045.0
1698411975.744209,13051.0
1698411975.764653,13057.0
1698411975.785097,13064.0
1698411975.805541,13074.0
1698411975.825985,13078.0
1698411975.8464286,13082.0
1698411975.8668728,13083.0
1698411975.887317,13091.0
1698411975.9077604,13092.0
1698411975.9282045,13103.0
1698411975.9486485,13103.0
1698411975.9690924,13104.0
1698411975.9895363,13108.0
1698411976.0099802,13109.0
1698411976.0304244,13108.0
1698411976.0508683,13105.0
1698411976.071312,13106.0
1698411976.091756,13108.0
1698411976.1122,13105.0
1698411976.132644,13100.0
1698411976.1530879,13103.0
1698411976.1735315,13101.0
1698411976.193976,13104.0
1698411976.2144196,13106.0
1698411976.2348635,13105.0
1698411976.2553077,13106.0
1698411976.2757516,13106.0
1698411976.2961955,13105.0
1698411976.3166394,13113.0
1698411976.3370833,13113.0
1698411976.357527,13111.0
1698411976.3779712,13110.0
1698411976.398415,13110.0
1698411976.4188592,13110.0
1698411976.439303,13114.0
1698411976.459747,13112.0
1698411976.480191,13112.0
1698411976.5006347,13117.0
1698411976.5210788,13117.0
1698411976.5415227,13115.0
1698411976.5619667,13113.0
1698411976.5824106,13107.0
1698411976.6028545,13105.0
1698411976.6232986,13098.0
1698411976.6437423,13097.0
1698411976.6641862,13098.0
1698411976.6846304,13102.0
1698411976.7050743,13105.0
1698411976.725518,13098.0
1698411976.7459621,13095.0
1698411976.766406,13089.0
1698411976.7868502,13087.0
1698411976.807294,13085.0
1698411976.8277378,13087.0
1698411976.848182,13088.0
1698411976.8686254,13094.0
1698411976.8890696,13108.0
1698411976.9095137,13130.0
1698411976.9299576,13140.0
1698411976.9504015,13148.0
1698411976.9708457,13147.0
1698411976.9912894,13139.0
1698411977.0117333,13125.0
1698411977.0321772,13116.0
1698411977.0526211,13110.0
1698411977.0730653,13105.0
1698411977.093509,13094.0
1698411977.113953,13089.0
1698411977.134397,13087.0
1698411977.1548407,13077.0
1698411977.1752849,13071.0
1698411977.1957288,13066.0
1698411977.2161727,13064.0
1698411977.2366166,13056.0
1698411977.2570603,13049.0
1698411977.2775047,13046.0
1698411977.2979486,13039.0
1698411977.3183923,13035.0
1698411977.3388364,13035.0
1698411977.3592806,13031.0
1698411977.379724,13028.0
1698411977.4001682,13025.0
1698411977.420612,13018.0
1698411977.4410563,13018.0
1698411977.4615,13015.0
1698411977.4819438,13011.0
1698411977.502388,13010.0
1698411977.5228317,13001.0
1698411977.5432758,13003.0
1698411977.5637195,13002.0
1698411977.5841637,12999.0
1698411977.6046076,12998.0
1698411977.6250515,12995.0
1698411977.6454954,12997.0
1698411977.6659398,12992.0
1698411977.6863832,12988.0
1698411977.7068274,12991.0
1698411977.7272713,12988.0
1698411977.747715,12983.0
1698411977.7681592,12986.0
1698411977.788603,12981.0
1698411977.809047,12980.0
1698411977.829491,12972.0
1698411977.8499348,12970.0
1698411977.870379,12965.0
1698411977.8908226,12965.0
1698411977.9112666,12963.0
1698411977.9317107,12964.0
1698411977.9521544,12963.0
1698411977.9725983,12954.0
1698411977.9930425,12953.0
1698411978.0134864,12950.0
1698411978.0339303,12954.0
1698411978.0543745,12952.0
1698411978.0748181,12949.0
1698411978.0952623,12944.0
1698411978.115706,12942.0
1698411978.13615,12939.0
1698411978.156594,12935.0
1698411978.177038,12933.0
1698411978.1974819,12926.0
1698411978.2179258,12925.0
1698411978.2383697,12919.0
1698411978.2588136,12923.0
1698411978.2792575,12916.0
1698411978.2997015,12914.0
1698411978.3201456,12912.0
1698411978.3405893,12909.0
1698411978.3610334,12915.0
1698411978.3814774,12909.0
1698411978.401921,12910.0
1698411978.4223652,12905.0
1698411978.442809,12907.0
1698411978.463253,12906.0
1698411978.483697,12897.0
1698411978.5041409,12899.0
1698411978.524585,12900.0
1698411978.545029,12902.0
1698411978.5654728,12899.0
1698411978.5859168,12903.0
1698411978.6063607,12905.0
1698411978.6268044,12908.0
1698411978.6472483,12916.0
1698411978.6676924,12927.0
1698411978.6881366,12939.0
1698411978.7085803,12935.0
1698411978.7290242,12944.0
1698411978.7494686,12952.0
1698411978.769912,12961.0
1698411978.790356,12967.0
1698411978.8108,12977.0
1698411978.831244,12983.0
1698411978.851688,12998.0
1698411978.8721318,13012.0
1698411978.8925757,13021.0
1698411978.9130197,13027.0
1698411978.9334636,13044.0
1698411978.9539077,13047.0
1698411978.9743516,13051.0
1698411978.9947953,13046.0
1698411979.0152395,13046.0
1698411979.0356832,13042.0
1698411979.0561273,13034.0
1698411979.0765712,13025.0
1698411979.0970151,13027.0
1698411979.117459,13023.0
1698411979.137903,13022.0
1698411979.158347,13022.0
1698411979.178791,13016.0
1698411979.199235,13016.0
1698411979.2196786,13019.0
1698411979.2401228,13020.0
1698411979.260567,13018.0
1698411979.2810104,13017.0
1698411979.3014545,13013.0
1698411979.3218985,13015.0
1698411979.3423424,13013.0
1698411979.3627863,13021.0
1698411979.3832302,13016.0
1698411979.4036744,13021.0
1698411979.4241183,13023.0
1698411979.444562,13022.0
1698411979.465006,13021.0
1698411979.48545,13025.0
1698411979.505894,13029.0
1698411979.5263379,13026.0
1698411979.5467815,13033.0
1698411979.567226,13036.0
1698411979.5876696,13046.0
1698411979.6081135,13048.0
1698411979.6285577,13047.0
1698411979.6490016,13046.0
1698411979.6694455,13044.0
1698411979.6898894,13040.0
1698411979.7103333,13041.0
1698411979.730777,13040.0
1698411979.7512212,13040.0
1698411979.771665,13043.0
1698411979.792109,13052.0
1698411979.812553,13061.0
1698411979.832997,13073.0
1698411979.853441,13086.0
1698411979.8738847,13092.0
1698411979.8943288,13096.0
1698411979.9147727,13097.0
1698411979.9352167,13090.0
1698411979.9556606,13097.0
1698411979.9761045,13091.0
1698411979.9965487,13089.0
1698411980.0169923,13082.0
1698411980.0374362,13081.0
1698411980.0578804,13073.0
1698411980.0783243,13073.0
1698411980.098768,13069.0
1698411980.1192122,13066.0
1698411980.139656,13062.0
1698411980.1601,13064.0
1698411980.180544,13058.0
1698411980.2009878,13056.0
1698411980.221432,13058.0
1698411980.2418754,13057.0
1698411980.2623196,13052.0
1698411980.2827637,13054.0
1698411980.3032076,13051.0
1698411980.3236516,13055.0
1698411980.3440957,13057.0
1698411980.3645394,13054.0
1698411980.3849833,13051.0
1698411980.4054272,13049.0
1698411980.4258711,13045.0
1698411980.4463153,13039.0
1698411980.466759,13039.0
1698411980.4872031,13037.0
1698411980.507647,13035.0
1698411980.5280907,13027.0
1698411980.5485349,13026.0
1698411980.5689788,13025.0
1698411980.5894227,13026.0
1698411980.6098666,13019.0
1698411980.6303103,13019.0
1698411980.6507547,13018.0
1698411980.6711984,13021.0
1698411980.6916423,13008.0
1698411980.7120864,13010.0
1698411980.7325306,13009.0
1698411980.752974,13004.0
1698411980.7734182,13000.0
1698411980.793862,13003.0
1698411980.8143063,13001.0
1698411980.83475,12999.0
1698411980.8551939,12992.0
1698411980.875638,12989.0
1698411980.8960817,12990.0
1698411980.9165258,12987.0
1698411980.9369695,12990.0
1698411980.9574137,12994.0
1698411980.9778576,12996.0
1698411980.9983015,13001.0
1698411981.0187454,13004.0
1698411981.0391898,13014.0
1698411981.0596333,13016.0
1698411981.0800774,13020.0
1698411981.1005213,13017.0
1698411981.120965,13020.0
1698411981.1414092,13018.0
1698411981.161853,13015.0
1698411981.182297,13009.0
1698411981.202741,13010.0
1698411981.2231848,13005.0
1698411981.243629,13007.0
1698411981.2640727,13006.0
1698411981.2845166,13011.0
1698411981.3049607,13004.0
1698411981.3254044,13004.0
1698411981.3458483,13003.0
1698411981.3662925,13000.0
1698411981.3867364,12998.0
1698411981.4071803,12992.0
1698411981.4276245,12998.0
1698411981.4480681,12991.0
1698411981.4685123,12988.0
1698411981.488956,12985.0
1698411981.5094,12984.0
1698411981.529844,12983.0
1698411981.5502877,12987.0
1698411981.5707319,12981.0
1698411981.5911758,12980.0
1698411981.6116197,12988.0
1698411981.6320636,12998.0
1698411981.6525075,12997.0
1698411981.6729515,13001.0
1698411981.6933956,13008.0
1698411981.7138393,13001.0
1698411981.7342834,12999.0
1698411981.7547274,12997.0
1698411981.775171,12991.0
1698411981.7956152,12985.0
1698411981.816059,12982.0
1698411981.836503,12984.0
1698411981.856947,12982.0
1698411981.8773909,12987.0
1698411981.897835,12987.0
1698411981.9182787,12985.0
1698411981.9387228,12984.0
1698411981.9591668,12990.0
1698411981.9796107,12992.0
1698411982.0000544,12986.0
1698411982.0204983,12988.0
1698411982.0409424,12985.0
1698411982.0613866,12978.0
1698411982.0818303,12985.0
1698411982.1022742,12978.0
1698411982.1227186,12977.0
1698411982.143162,12980.0
1698411982.163606,12980.0
1698411982.18405,12980.0
1698411982.204494,12974.0
1698411982.224938,12976.0
1698411982.2453818,12975.0
1698411982.2658257,12980.0
1698411982.2862697,12971.0
1698411982.3067136,12973.0
1698411982.3271577,12970.0
1698411982.3476017,12965.0
1698411982.3680453,12957.0
1698411982.3884895,12959.0
1698411982.4089332,12952.0
1698411982.429377,12948.0
1698411982.4498212,12945.0
1698411982.4702652,12945.0
1698411982.490709,12935.0
1698411982.511153,12930.0
1698411982.531597,12931.0
1698411982.552041,12933.0
1698411982.572485,12929.0
1698411982.5929286,12937.0
1698411982.6133728,12945.0
1698411982.633817,12953.0
1698411982.6542604,12961.0
1698411982.6747046,12963.0
1698411982.6951485,12956.0
1698411982.7155924,12954.0
1698411982.7360363,12958.0
1698411982.7564802,12951.0
1698411982.7769244,12950.0
1698411982.797368,12948.0
1698411982.817812,12945.0
1698411982.8382561,12946.0
1698411982.8587,12950.0
1698411982.879144,12944.0
1698411982.8995879,12940.0
1698411982.9200315,12942.0
1698411982.940476,12940.0
1698411982.9609196,12937.0
1698411982.9813635,12938.0
1698411983.0018077,12929.0
1698411983.0222516,12934.0
1698411983.0426955,12934.0
1698411983.0631394,12933.0
1698411983.0835834,12938.0
1698411983.104027,12935.0
1698411983.1244712,12936.0
1698411983.144915,12929.0
1698411983.165359,12938.0
1698411983.185803,12936.0
1698411983.206247,12931.0
1698411983.226691,12934.0
1698411983.2471347,12933.0
1698411983.2675788,12931.0
1698411983.2880228,12933.0
1698411983.3084664,12935.0
1698411983.3289106,12926.0
1698411983.3493545,12920.0
1698411983.3697987,12923.0
1698411983.3902423,12922.0
1698411983.4106863,12916.0
1698411983.4311304,12916.0
1698411983.4515743,12919.0
1698411983.472018,12917.0
1698411983.4924622,12920.0
1698411983.512906,12920.0
1698411983.53335,12922.0
1698411983.553794,12920.0
1698411983.5742378,12922.0
1698411983.594682,12931.0
1698411983.6151254,12937.0
1698411983.6355696,12942.0
1698411983.6560137,12947.0
1698411983.6764574,12948.0
1698411983.6969016,12951.0
1698411983.7173457,12955.0
1698411983.7377894,12956.0
1698411983.7582333,12961.0
1698411983.7786772,12969.0
1698411983.7991211,12971.0
1698411983.8195653,12979.0
1698411983.840009,12977.0
1698411983.8604531,12974.0
1698411983.880897,12975.0
1698411983.9013407,12975.0
1698411983.9217849,12975.0
1698411983.9422288,12976.0
1698411983.9626727,12985.0
1698411983.9831166,12985.0
1698411984.0035603,12988.0
1698411984.0240047,12992.0
1698411984.0444484,12990.0
1698411984.0648923,12986.0
1698411984.0853364,12990.0
1698411984.1057806,12991.0
1698411984.126224,12990.0
1698411984.1466682,12988.0
1698411984.167112,12992.0
1698411984.1875563,12993.0
1698411984.208,12992.0
1698411984.2284439,12989.0
1698411984.248888,12989.0
1698411984.2693317,12985.0
1698411984.2897758,12983.0
1698411984.3102195,12978.0
1698411984.3306637,12975.0
1698411984.3511076,12973.0
1698411984.3715515,12969.0
1698411984.3919954,12963.0
1698411984.4124396,12959.0
1698411984.4328833,12964.0
1698411984.4533274,12963.0
1698411984.4737713,12964.0
1698411984.494215,12963.0
1698411984.5146592,12963.0
1698411984.535103,12966.0
1698411984.5555468,12963.0
1698411984.575991,12959.0
1698411984.5964348,12952.0
1698411984.616879,12947.0
1698411984.6373227,12946.0
1698411984.6577666,12944.0
1698411984.6782107,12941.0
1698411984.6986544,12942.0
1698411984.7190983,12943.0
1698411984.7395425,12942.0
1698411984.7599864,12938.0
1698411984.7804303,12940.0
1698411984.8008745,12940.0
1698411984.8213181,12940.0
1698411984.8417623,12939.0
1698411984.862206,12942.0
1698411984.88265,12946.0
1698411984.903094,12948.0
1698411984.9235377,12953.0
1698411984.943982,12956.0
1698411984.9644258,12952.0
1698411984.9848697,12957.0
1698411985.0053136,12957.0
1698411985.0257576,12963.0
1698411985.0462015,12959.0
1698411985.0666456,12958.0
1698411985.0870893,12962.0
1698411985.1075335,12961.0
1698411985.1279774,12955.0
1698411985.148421,12951.0
1698411985.1688652,12948.0
1698411985.1893091,12944.0
1698411985.209753,12933.0
1698411985.230197,12934.0
1698411985.2506409,12926.0
1698411985.271085,12922.0
1698411985.2915287,12919.0
1698411985.3119729,12917.0
1698411985.3324168,12918.0
1698411985.3528607,12916.0
1698411985.3733044,12920.0
1698411985.3937483,12922.0
1698411985.4141924,12931.0
1698411985.4346366,12934.0
1698411985.4550803,12939.0
1698411985.4755242,12945.0
1698411985.4959686,12949.0
1698411985.516412,12951.0
1698411985.536856,12954.0
1698411985.5573,12948.0
1698411985.577744,12953.0
1698411985.598188,12949.0
1698411985.6186318,12952.0
1698411985.6390758,12950.0
1698411985.6595197,12956.0
1698411985.6799636,12956.0
1698411985.7004077,12957.0
1698411985.7208517,12951.0
1698411985.7412953,12949.0
1698411985.7617395,12952.0
1698411985.7821832,12953.0
1698411985.802627,12948.0
1698411985.8230712,12948.0
1698411985.8435152,12945.0
1698411985.863959,12945.0
1698411985.884403,12941.0
1698411985.904847,12941.0
1698411985.925291,12936.0
1698411985.945735,12932.0
1698411985.9661787,12931.0
1698411985.9866228,12927.0
1698411986.007067,12924.0
1698411986.0275104,12924.0
1698411986.0479546,12927.0
1698411986.0683985,12932.0
1698411986.0888424,12926.0
1698411986.1092863,12929.0
1698411986.1297302,12926.0
1698411986.1501744,12937.0
1698411986.170618,12933.0
1698411986.191062,12933.0
1698411986.2115061,12938.0
1698411986.23195,12940.0
1698411986.252394,12947.0
1698411986.2728379,12950.0
1698411986.2932816,12954.0
1698411986.313726,12952.0
1698411986.3341696,12947.0
1698411986.3546135,12947.0
1698411986.3750577,12952.0
1698411986.3955016,12945.0
1698411986.4159455,12942.0
1698411986.4363894,12952.0
1698411986.4568334,12959.0
1698411986.477277,12962.0
1698411986.4977212,12968.0
1698411986.518165,12972.0
1698411986.538609,12971.0
1698411986.559053,12966.0
1698411986.579497,12966.0
1698411986.599941,12962.0
1698411986.6203847,12960.0
1698411986.6408288,12962.0
1698411986.6612728,12955.0
1698411986.6817164,12959.0
1698411986.7021606,12954.0
1698411986.7226045,12954.0
1698411986.7430487,12956.0
1698411986.7634923,12952.0
1698411986.7839363,12951.0
1698411986.8043804,12949.0
1698411986.8248243,12953.0
1698411986.845268,12951.0
1698411986.8657122,12951.0
1698411986.886156,12960.0
1698411986.9066,12961.0
1698411986.927044,12969.0
1698411986.9474878,12964.0
1698411986.967932,12965.0
1698411986.9883754,12964.0
1698411987.0088196,12963.0
1698411987.0292637,12962.0
1698411987.0497074,12962.0
1698411987.0701516,12956.0
1698411987.0905957,12956.0
1698411987.1110394,12952.0
1698411987.1314833,12960.0
1698411987.1519272,12956.0
1698411987.1723711,12958.0
1698411987.1928153,12955.0
1698411987.213259,12959.0
1698411987.2337031,12954.0
1698411987.254147,12953.0
1698411987.2745907,12948.0
1698411987.295035,12954.0
1698411987.3154788,12957.0
1698411987.3359227,12959.0
1698411987.3563666,12958.0
1698411987.3768103,12963.0
1698411987.3972547,12971.0
1698411987.4176984,12969.0
1698411987.4381423,12971.0
1698411987.4585865,12970.0
1698411987.4790306,12966.0
1698411987.499474,12961.0
1698411987.5199182,12957.0
1698411987.5403621,12950.0
1698411987.560806,12947.0
1698411987.58125,12942.0
1698411987.6016939,12944.0
1698411987.622138,12952.0
1698411987.6425817,12949.0
1698411987.6630259,12958.0
1698411987.6834695,12963.0
1698411987.7039137,12966.0
1698411987.7243576,12974.0
1698411987.7448015,12975.0
1698411987.7652454,12977.0
1698411987.7856896,12985.0
1698411987.8061333,12981.0
1698411987.8265774,12984.0
1698411987.8470213,12988.0
1698411987.867465,12990.0
1698411987.8879092,12999.0
1698411987.908353,12992.0
1698411987.9287968,12995.0
1698411987.949241,12995.0
1698411987.9696848,12993.0
1698411987.990129,12987.0
1698411988.0105727,12986.0
1698411988.0310166,12983.0
1698411988.0514607,12983.0
1698411988.0719042,12980.0
1698411988.0923483,12973.0
1698411988.1127925,12970.0
1698411988.1332364,12964.0
1698411988.1536803,12960.0
1698411988.1741245,12958.0
1698411988.1945682,12955.0
1698411988.2150123,12951.0
1698411988.235456,12949.0
1698411988.2559,12947.0
1698411988.276344,12943.0
1698411988.2967877,12939.0
1698411988.317232,12940.0
1698411988.3376758,12932.0
1698411988.3581197,12934.0
1698411988.3785636,12930.0
1698411988.3990076,12929.0
1698411988.4194515,12931.0
1698411988.4398954,12930.0
1698411988.4603393,12938.0
1698411988.4807835,12943.0
1698411988.5012274,12945.0
1698411988.521671,12946.0
1698411988.5421152,12946.0
1698411988.5625591,12944.0
1698411988.583003,12942.0
1698411988.603447,12944.0
1698411988.6238909,12939.0
1698411988.644335,12933.0
1698411988.6647787,12927.0
1698411988.6852229,12930.0
1698411988.7056668,12929.0
1698411988.7261107,12928.0
1698411988.7465544,12927.0
1698411988.7669983,12926.0
1698411988.7874424,12922.0
1698411988.8078864,12921.0
1698411988.8283303,12918.0
1698411988.8487742,12922.0
1698411988.8692186,12924.0
1698411988.889662,12927.0
1698411988.910106,12922.0
1698411988.93055,12924.0
1698411988.950994,12924.0
1698411988.971438,12929.0
1698411988.9918818,12932.0
1698411989.0123258,12934.0
1698411989.0327697,12932.0
1698411989.0532136,12933.0
1698411989.0736578,12935.0
1698411989.0941017,12933.0
1698411989.1145453,12933.0
1698411989.1349895,12928.0
1698411989.1554332,12930.0
1698411989.175877,12932.0
1698411989.1963212,12931.0
1698411989.2167652,12934.0
1698411989.237209,12938.0
1698411989.257653,12933.0
1698411989.278097,12939.0
1698411989.298541,12934.0
1698411989.3189847,12931.0
1698411989.3394287,12924.0
1698411989.3598728,12916.0
1698411989.380317,12914.0
1698411989.4007604,12906.0
1698411989.4212046,12898.0
1698411989.4416485,12904.0
1698411989.4620924,12903.0
1698411989.4825363,12907.0
1698411989.5029802,12913.0
1698411989.5234244,12908.0
1698411989.543868,12912.0
1698411989.564312,12908.0
1698411989.5847561,12911.0
1698411989.6052,12914.0
1698411989.625644,12916.0
1698411989.646088,12921.0
1698411989.6665316,12928.0
1698411989.6869757,12932.0
1698411989.7074196,12932.0
1698411989.7278636,12939.0
1698411989.7483077,12937.0
1698411989.7687516,12939.0
1698411989.7891955,12939.0
1698411989.8096395,12943.0
1698411989.8300834,12948.0
1698411989.850527,12953.0
1698411989.8709712,12962.0
1698411989.891415,12967.0
1698411989.911859,12972.0
1698411989.932303,12978.0
1698411989.952747,12979.0
1698411989.973191,12985.0
1698411989.9936347,12980.0
1698411990.0140789,12976.0
1698411990.0345228,12970.0
1698411990.0549664,12965.0
1698411990.0754106,12965.0
1698411990.0958545,12965.0
1698411990.1162987,12967.0
1698411990.1367424,12965.0
1698411990.1571863,12961.0
1698411990.1776304,12962.0
1698411990.198074,12961.0
1698411990.218518,12962.0
1698411990.2389622,12958.0
1698411990.259406,12953.0
1698411990.27985,12955.0
1698411990.300294,12951.0
1698411990.3207378,12950.0
1698411990.341182,12952.0
1698411990.3616254,12944.0
1698411990.3820696,12944.0
1698411990.4025137,12936.0
1698411990.4229574,12935.0
1698411990.4434016,12930.0
1698411990.4638457,12932.0
1698411990.4842894,12937.0
1698411990.5047333,12938.0
1698411990.5251772,12947.0
1698411990.5456212,12949.0
1698411990.566065,12953.0
1698411990.586509,12955.0
1698411990.6069531,12953.0
1698411990.627397,12949.0
1698411990.6478407,12950.0
1698411990.668285,12942.0
1698411990.6887288,12939.0
1698411990.7091727,12939.0
1698411990.7296166,12942.0
1698411990.7500603,12944.0
1698411990.7705047,12940.0
1698411990.7909484,12940.0
1698411990.8113923,12942.0
1698411990.8318365,12938.0
1698411990.8522806,12940.0
1698411990.872724,12937.0
1698411990.8931682,12955.0
1698411990.9136121,12976.0
1698411990.934056,13016.0
1698411990.9545,13066.0
1698411990.9749439,13121.0
1698411990.995388,13177.0
1698411991.0158317,13254.0
1698411991.0362759,13316.0
1698411991.0567195,13362.0
1698411991.0771635,13387.0
1698411991.0976076,13396.0
1698411991.1180515,13402.0
1698411991.1384954,13403.0
1698411991.1589396,13388.0
1698411991.1793833,13367.0
1698411991.1998274,13361.0
1698411991.2202713,13345.0
1698411991.240715,13332.0
1698411991.2611592,13320.0
1698411991.281603,13315.0
1698411991.3020468,13306.0
1698411991.322491,13299.0
1698411991.3429348,13290.0
1698411991.363379,13278.0
1698411991.3838227,13275.0
1698411991.4042666,13271.0
1698411991.4247108,13266.0
1698411991.4451542,13258.0
1698411991.4655983,13255.0
1698411991.4860425,13247.0
1698411991.5064864,13242.0
1698411991.5269303,13238.0
1698411991.5473745,13233.0
1698411991.5678182,13223.0
1698411991.5882623,13219.0
1698411991.608706,13211.0
1698411991.62915,13214.0
1698411991.649594,13209.0
1698411991.6700377,13208.0
1698411991.690482,13201.0
1698411991.7109258,13200.0
1698411991.7313697,13191.0
1698411991.7518137,13190.0
1698411991.7722576,13181.0
1698411991.7927015,13177.0
1698411991.8131454,13178.0
1698411991.8335893,13175.0
1698411991.8540335,13167.0
1698411991.8744774,13163.0
1698411991.894921,13162.0
1698411991.9153652,13159.0
1698411991.9358091,13156.0
1698411991.9562528,13160.0
1698411991.976697,13150.0
1698411991.997141,13150.0
1698411992.017585,13153.0
1698411992.0380287,13153.0
1698411992.0584729,13151.0
1698411992.0789168,13149.0
1698411992.0993607,13152.0
1698411992.1198044,13147.0
1698411992.1402483,13141.0
1698411992.1606925,13141.0
1698411992.1811364,13136.0
1698411992.2015803,13131.0
1698411992.2220242,13125.0
1698411992.2424686,13125.0
1698411992.262912,13118.0
1698411992.283356,13112.0
1698411992.3038,13108.0
1698411992.3242438,13106.0
1698411992.344688,13103.0
1698411992.3651319,13102.0
1698411992.3855758,13100.0
1698411992.4060197,13092.0
1698411992.4264636,13089.0
1698411992.4469078,13085.0
1698411992.4673517,13082.0
1698411992.4877954,13079.0
1698411992.5082395,13078.0
1698411992.5286832,13076.0
1698411992.549127,13080.0
1698411992.5695713,13078.0
1698411992.5900152,13071.0
1698411992.610459,13073.0
1698411992.630903,13071.0
1698411992.651347,13075.0
1698411992.671791,13067.0
1698411992.6922348,13066.0
1698411992.7126787,13064.0
1698411992.7331228,13062.0
1698411992.753567,13065.0
1698411992.7740104,13057.0
1698411992.7944546,13056.0
1698411992.8148985,13051.0
1698411992.8353422,13049.0
1698411992.8557863,13052.0
1698411992.8762302,13053.0
1698411992.8966744,13049.0
1698411992.917118,13050.0
1698411992.937562,13050.0
1698411992.9580061,13046.0
1698411992.97845,13045.0
1698411992.998894,13045.0
1698411993.019338,13050.0
1698411993.0397816,13043.0
1698411993.0602257,13040.0
1698411993.0806696,13041.0
1698411993.1011136,13038.0
1698411993.1215577,13039.0
1698411993.1420016,13041.0
1698411993.1624455,13039.0
1698411993.1828895,13035.0
1698411993.2033331,13036.0
1698411993.223777,13033.0
1698411993.2442212,13030.0
1698411993.2646651,13034.0
1698411993.285109,13039.0
1698411993.305553,13038.0
1698411993.325997,13037.0
1698411993.346441,13034.0
1698411993.3668847,13040.0
1698411993.3873289,13037.0
1698411993.4077728,13041.0
1698411993.4282165,13045.0
1698411993.4486606,13051.0
1698411993.4691045,13057.0
1698411993.4895487,13070.0
1698411993.5099924,13077.0
1698411993.5304363,13087.0
1698411993.5508804,13092.0
1698411993.571324,13102.0
1698411993.591768,13104.0
1698411993.6122122,13103.0
1698411993.632656,13107.0
1698411993.6531,13103.0
1698411993.673544,13101.0
1698411993.6939878,13099.0
1698411993.714432,13104.0
1698411993.7348754,13101.0
1698411993.7553196,13100.0
1698411993.7757638,13099.0
1698411993.7962074,13102.0
1698411993.8166516,13101.0
1698411993.8370957,13099.0
1698411993.8575394,13101.0
1698411993.8779833,13095.0
1698411993.8984272,13096.0
1698411993.9188712,13094.0
1698411993.939315,13091.0
1698411993.959759,13089.0
1698411993.9802032,13089.0
1698411994.000647,13088.0
1698411994.0210907,13077.0
1698411994.041535,13080.0
1698411994.0619788,13076.0
1698411994.0824225,13071.0
1698411994.1028666,13066.0
1698411994.1233103,13065.0
1698411994.1437547,13060.0
1698411994.1641984,13062.0
1698411994.1846423,13055.0
1698411994.2050865,13054.0
1698411994.2255306,13053.0
1698411994.245974,13052.0
1698411994.2664182,13053.0
1698411994.2868621,13056.0
1698411994.307306,13059.0
1698411994.32775,13058.0
1698411994.348194,13066.0
1698411994.368638,13069.0
1698411994.3890817,13075.0
1698411994.4095259,13078.0
1698411994.4299695,13079.0
1698411994.4504135,13084.0
1698411994.4708576,13081.0
1698411994.4913015,13075.0
1698411994.5117455,13073.0
1698411994.5321896,13068.0
1698411994.5526333,13068.0
1698411994.5730774,13061.0
1698411994.5935214,13063.0
1698411994.613965,13060.0
1698411994.6344092,13062.0
1698411994.654853,13062.0
1698411994.6752968,13061.0
1698411994.695741,13059.0
1698411994.7161849,13060.0
1698411994.736629,13056.0
1698411994.7570727,13054.0
1698411994.7775166,13052.0
1698411994.7979608,13052.0
1698411994.8184042,13050.0
1698411994.8388484,13052.0
1698411994.8592925,13049.0
1698411994.8797364,13047.0
1698411994.9001803,13048.0
1698411994.9206245,13048.0
1698411994.9410682,13055.0
1698411994.961512,13054.0
1698411994.981956,13059.0
1698411995.0024,13061.0
1698411995.022844,13064.0
1698411995.0432878,13063.0
1698411995.063732,13073.0
1698411995.0841758,13080.0
1698411995.1046197,13090.0
1698411995.1250637,13094.0
1698411995.1455076,13102.0
1698411995.1659515,13110.0
1698411995.1863954,13111.0
1698411995.2068393,13112.0
1698411995.2272835,13110.0
1698411995.2477274,13104.0
1698411995.268171,13109.0
1698411995.2886152,13111.0
1698411995.3090591,13111.0
1698411995.3295028,13122.0
1698411995.349947,13125.0
1698411995.370391,13130.0
1698411995.390835,13139.0
1698411995.4112787,13142.0
1698411995.4317229,13146.0
1698411995.4521668,13159.0
1698411995.4726107,13157.0
1698411995.4930544,13165.0
1698411995.5134983,13161.0
1698411995.5339425,13167.0
1698411995.5543864,13167.0
1698411995.5748303,13166.0
1698411995.5952742,13168.0
1698411995.6157186,13165.0
1698411995.636162,13161.0
1698411995.656606,13164.0
1698411995.67705,13157.0
1698411995.6974938,13159.0
1698411995.717938,13151.0
1698411995.7383819,13153.0
1698411995.7588258,13151.0
1698411995.7792697,13149.0
1698411995.7997136,13146.0
1698411995.8201578,13150.0
1698411995.8406014,13147.0
1698411995.8610454,13142.0
1698411995.8814895,13144.0
1698411995.9019332,13148.0
1698411995.922377,13146.0
1698411995.9428213,13141.0
1698411995.9632652,13144.0
1698411995.983709,13146.0
1698411996.004153,13138.0
1698411996.024597,13144.0
1698411996.045041,13147.0
1698411996.0654848,13146.0
1698411996.0859287,13147.0
1698411996.1063728,13152.0
1698411996.126817,13149.0
1698411996.1472604,13153.0
1698411996.1677046,13154.0
1698411996.1881485,13154.0
1698411996.2085922,13155.0
1698411996.2290363,13154.0
1698411996.2494802,13160.0
1698411996.2699244,13166.0
1698411996.290368,13162.0
1698411996.310812,13169.0
1698411996.3312562,13175.0
1698411996.3517,13181.0
1698411996.372144,13182.0
1698411996.392588,13184.0
1698411996.4130316,13183.0
1698411996.4334757,13185.0
1698411996.4539196,13187.0
1698411996.4743636,13191.0
1698411996.4948077,13190.0
1698411996.5152516,13189.0
1698411996.5356956,13186.0
1698411996.5561395,13193.0
1698411996.5765831,13193.0
1698411996.597027,13195.0
1698411996.6174712,13189.0
1698411996.6379151,13194.0
1698411996.658359,13199.0
1698411996.678803,13196.0
1698411996.6992471,13199.0
1698411996.7196908,13203.0
1698411996.7401347,13204.0
1698411996.7605789,13207.0
1698411996.7810228,13206.0
1698411996.8014665,13216.0
1698411996.8219106,13223.0
1698411996.8423545,13221.0
1698411996.8627987,13223.0
1698411996.8832424,13228.0
1698411996.9036863,13224.0
1698411996.9241304,13226.0
1698411996.944574,13222.0
1698411996.965018,13218.0
1698411996.9854622,13216.0
1698411997.005906,13214.0
1698411997.02635,13207.0
1698411997.046794,13198.0
1698411997.0672379,13203.0
1698411997.0876818,13198.0
1698411997.1081254,13197.0
1698411997.1285696,13200.0
1698411997.1490138,13199.0
1698411997.1694574,13198.0
1698411997.1899016,13200.0
1698411997.2103457,13205.0
1698411997.2307894,13208.0
1698411997.2512333,13205.0
1698411997.2716773,13210.0
1698411997.2921212,13217.0
1698411997.312565,13216.0
1698411997.333009,13217.0
1698411997.3534532,13220.0
1698411997.373897,13222.0
1698411997.3943408,13231.0
1698411997.414785,13236.0
1698411997.4352288,13240.0
1698411997.4556725,13249.0
1698411997.4761167,13252.0
1698411997.4965603,13263.0
1698411997.5170047,13272.0
1698411997.5374484,13286.0
1698411997.5578923,13309.0
1698411997.5783365,13343.0
1698411997.5987806,13386.0
1698411997.619224,13433.0
1698411997.6396682,13480.0
1698411997.6601121,13523.0
1698411997.680556,13566.0
1698411997.701,13595.0
1698411997.721444,13610.0
1698411997.741888,13618.0
1698411997.7623317,13616.0
1698411997.7827759,13606.0
1698411997.8032196,13592.0
1698411997.8236635,13585.0
1698411997.8441076,13580.0
1698411997.8645515,13570.0
1698411997.8849955,13562.0
1698411997.9054396,13557.0
1698411997.9258833,13551.0
1698411997.9463274,13546.0
1698411997.9667711,13542.0
1698411997.987215,13529.0
1698411998.0076592,13526.0
1698411998.028103,13526.0
1698411998.0485468,13516.0
1698411998.068991,13516.0
1698411998.0894349,13510.0
1698411998.109879,13512.0
1698411998.1303227,13508.0
1698411998.1507666,13510.0
1698411998.1712108,13508.0
1698411998.1916542,13506.0
1698411998.2120984,13509.0
1698411998.2325425,13510.0
1698411998.2529864,13515.0
1698411998.2734303,13517.0
1698411998.2938745,13520.0
1698411998.3143182,13521.0
1698411998.334762,13523.0
1698411998.355206,13519.0
1698411998.37565,13522.0
1698411998.396094,13517.0
1698411998.4165378,13521.0
1698411998.436982,13528.0
1698411998.4574258,13533.0
1698411998.4778695,13537.0
1698411998.4983137,13541.0
1698411998.5187576,13551.0
1698411998.5392015,13565.0
1698411998.5596454,13575.0
1698411998.5800893,13590.0
1698411998.6005335,13602.0
1698411998.6209774,13624.0
1698411998.641421,13645.0
1698411998.6618652,13656.0
1698411998.6823092,13679.0
1698411998.7027528,13698.0
1698411998.723197,13719.0
1698411998.743641,13742.0
1698411998.764085,13754.0
1698411998.7845287,13772.0
1698411998.804973,13786.0
1698411998.8254168,13797.0
1698411998.8458605,13814.0
1698411998.8663044,13821.0
1698411998.8867483,13827.0
1698411998.9071925,13830.0
1698411998.9276364,13833.0
1698411998.9480803,13837.0
1698411998.9685242,13841.0
1698411998.9889686,13841.0
1698411999.009412,13847.0
1698411999.029856,13844.0
1698411999.0503001,13846.0
1698411999.0707438,13852.0
1698411999.091188,13852.0
1698411999.1116319,13853.0
1698411999.1320758,13855.0
1698411999.1525197,13855.0
1698411999.1729636,13855.0
1698411999.1934078,13856.0
1698411999.2138515,13858.0
1698411999.2342954,13861.0
1698411999.2547395,13853.0
1698411999.2751832,13859.0
1698411999.295627,13861.0
1698411999.3160713,13866.0
1698411999.3365152,13862.0
1698411999.3569589,13862.0
1698411999.377403,13865.0
1698411999.397847,13865.0
1698411999.418291,13871.0
1698411999.4387348,13867.0
1698411999.4591787,13864.0
1698411999.4796228,13866.0
1698411999.500067,13862.0
1698411999.5205104,13865.0
1698411999.5409546,13863.0
1698411999.5613985,13857.0
1698411999.5818422,13855.0
1698411999.6022863,13856.0
1698411999.6227303,13857.0
1698411999.6431744,13858.0
1698411999.663618,13849.0
1698411999.684062,13856.0
1698411999.7045062,13857.0
1698411999.7249498,13853.0
1698411999.745394,13853.0
1698411999.765838,13855.0
1698411999.7862816,13852.0
1698411999.8067257,13857.0
1698411999.8271697,13853.0
1698411999.8476136,13856.0
1698411999.8680577,13854.0
1698411999.8885016,13855.0
1698411999.9089456,13856.0
1698411999.9293895,13857.0
1698411999.9498332,13856.0
1698411999.970277,13855.0
1698411999.9907212,13859.0
1698412000.0111651,13854.0
1698412000.031609,13854.0
1698412000.052053,13856.0
1698412000.0724971,13858.0
1698412000.0929408,13859.0
1698412000.1133847,13860.0
1698412000.1338289,13866.0
1698412000.1542728,13867.0
1698412000.1747165,13870.0
1698412000.1951606,13871.0
1698412000.2156045,13869.0
1698412000.2360487,13865.0
1698412000.2564924,13866.0
1698412000.2769363,13871.0
1698412000.2973804,13865.0
1698412000.3178241,13860.0
1698412000.338268,13858.0
1698412000.3587122,13855.0
1698412000.379156,13854.0
1698412000.3996,13847.0
1698412000.420044,13846.0
1698412000.4404879,13842.0
1698412000.4609318,13834.0
1698412000.4813755,13831.0
1698412000.5018196,13832.0
1698412000.5222638,13824.0
1698412000.5427074,13822.0
1698412000.5631516,13821.0
1698412000.5835958,13820.0
1698412000.6040392,13819.0
1698412000.6244833,13814.0
1698412000.6449273,13809.0
1698412000.6653712,13809.0
1698412000.685815,13804.0
1698412000.706259,13804.0
1698412000.7267032,13804.0
1698412000.747147,13799.0
1698412000.7675908,13799.0
1698412000.788035,13787.0
1698412000.8084788,13788.0
1698412000.8289225,13780.0
1698412000.8493667,13781.0
1698412000.8698103,13775.0
1698412000.8902547,13773.0
1698412000.9106984,13765.0
1698412000.9311423,13760.0
1698412000.9515865,13757.0
1698412000.9720304,13755.0
1698412000.992474,13755.0
1698412001.0129182,13752.0
1698412001.0333622,13748.0
1698412001.053806,13741.0
1698412001.07425,13733.0
1698412001.094694,13727.0
1698412001.115138,13723.0
1698412001.1355817,13715.0
1698412001.156026,13710.0
1698412001.1764696,13704.0
1698412001.1969135,13696.0
1698412001.2173576,13687.0
1698412001.2378016,13684.0
1698412001.2582455,13677.0
1698412001.2786896,13672.0
1698412001.2991333,13667.0
1698412001.3195775,13658.0
1698412001.3400211,13652.0
1698412001.360465,13656.0
1698412001.3809092,13642.0
1698412001.4013531,13643.0
1698412001.4217968,13640.0
1698412001.442241,13634.0
1698412001.4626849,13627.0
1698412001.483129,13627.0
1698412001.5035727,13622.0
1698412001.5240166,13615.0
1698412001.5444608,13616.0
1698412001.5649042,13606.0
1698412001.5853484,13605.0
1698412001.6057925,13603.0
1698412001.6262364,13601.0
1698412001.6466804,13595.0
1698412001.6671245,13593.0
1698412001.6875682,13590.0
1698412001.708012,13587.0
1698412001.728456,13581.0
1698412001.7489,13579.0
1698412001.769344,13573.0
1698412001.7897878,13572.0
1698412001.810232,13573.0
1698412001.8306758,13570.0
1698412001.8511195,13576.0
1698412001.8715637,13576.0
1698412001.8920076,13591.0
1698412001.9124515,13612.0
1698412001.9328954,13633.0
1698412001.9533393,13657.0
1698412001.9737835,13704.0
1698412001.9942274,13766.0
1698412002.014671,13828.0
1698412002.0351152,13888.0
1698412002.0555592,13960.0
1698412002.0760028,14047.0
1698412002.096447,14141.0
1698412002.116891,14251.0
1698412002.137335,14360.0
1698412002.1577787,14452.0
1698412002.178223,14532.0
1698412002.1986668,14603.0
1698412002.2191105,14673.0
1698412002.2395544,14727.0
1698412002.2599983,14769.0
1698412002.2804425,14799.0
1698412002.3008864,14809.0
1698412002.3213303,14814.0
1698412002.3417742,14824.0
1698412002.3622186,14832.0
1698412002.382662,14838.0
1698412002.403106,14851.0
1698412002.4235501,14871.0
1698412002.4439938,14900.0
1698412002.464438,14933.0
1698412002.4848819,14960.0
1698412002.5053258,14985.0
1698412002.5257697,15003.0
1698412002.5462136,15029.0
1698412002.5666578,15044.0
1698412002.5871015,15064.0
1698412002.6075454,15077.0
1698412002.6279895,15080.0
1698412002.6484332,15091.0
1698412002.6688771,15095.0
1698412002.6893213,15089.0
1698412002.7097652,15086.0
1698412002.7302089,15080.0
1698412002.750653,15064.0
1698412002.771097,15056.0
1698412002.791541,15046.0
1698412002.8119848,15036.0
1698412002.8324287,15027.0
1698412002.8528728,15012.0
1698412002.873317,15001.0
1698412002.8937604,14984.0
1698412002.9142046,14971.0
1698412002.9346485,14952.0
1698412002.9550922,14939.0
1698412002.9755363,14920.0
1698412002.9959803,14904.0
1698412003.0164244,14888.0
1698412003.036868,14866.0
1698412003.057312,14851.0
1698412003.0777562,14842.0
1698412003.0981998,14830.0
1698412003.118644,14808.0
1698412003.139088,14793.0
1698412003.1595316,14787.0
1698412003.1799757,14780.0
1698412003.2004197,14766.0
1698412003.2208636,14740.0
1698412003.2413077,14708.0
1698412003.2617517,14680.0
1698412003.2821956,14649.0
1698412003.3026395,14617.0
1698412003.3230832,14585.0
1698412003.343527,14546.0
1698412003.3639712,14518.0
1698412003.3844151,14481.0
1698412003.404859,14453.0
1698412003.425303,14424.0
1698412003.4457471,14408.0
1698412003.4661908,14397.0
1698412003.4866347,14381.0
1698412003.507079,14380.0
1698412003.5275228,14393.0
1698412003.5479665,14364.0
1698412003.5684106,14342.0
1698412003.5888546,14329.0
1698412003.6092985,14317.0
1698412003.6297424,14311.0
1698412003.6501863,14303.0
1698412003.6706305,14306.0
1698412003.6910741,14323.0
1698412003.711518,14323.0
1698412003.7319622,14322.0
1698412003.7524061,14326.0
1698412003.77285,14331.0
1698412003.793294,14332.0
1698412003.8137379,14329.0
1698412003.8341818,14331.0
1698412003.8546255,14316.0
1698412003.8750696,14305.0
1698412003.8955138,14298.0
1698412003.9159575,14284.0
1698412003.9364016,14269.0
1698412003.9568458,14251.0
1698412003.9772892,14232.0
1698412003.9977334,14223.0
1698412004.0181773,14196.0
1698412004.0386212,14179.0
1698412004.059065,14158.0
1698412004.079509,14136.0
1698412004.0999532,14117.0
1698412004.120397,14090.0
1698412004.1408408,14066.0
1698412004.161285,14050.0
1698412004.1817288,14031.0
1698412004.2021725,14020.0
1698412004.2226167,14022.0
1698412004.2430604,14037.0
1698412004.2635047,14063.0
1698412004.2839484,14105.0
1698412004.3043923,14139.0
1698412004.3248365,14183.0
1698412004.3452804,14221.0
1698412004.365724,14251.0
1698412004.3861682,14276.0
1698412004.4066122,14294.0
1698412004.427056,14313.0
1698412004.4475,14321.0
1698412004.467944,14332.0
1698412004.4883878,14344.0
1698412004.5088317,14354.0
1698412004.529276,14360.0
1698412004.5497196,14371.0
1698412004.5701635,14378.0
1698412004.5906076,14379.0
1698412004.6110516,14386.0
1698412004.6314955,14384.0
1698412004.6519396,14383.0
1698412004.6723833,14377.0
1698412004.6928275,14379.0
1698412004.7132711,14376.0
1698412004.733715,14369.0
1698412004.7541592,14364.0
1698412004.7746031,14364.0
1698412004.7950468,14361.0
1698412004.815491,14361.0
1698412004.8359349,14366.0
1698412004.8563788,14367.0
1698412004.8768227,14371.0
1698412004.8972666,14379.0
1698412004.9177108,14386.0
1698412004.9381542,14394.0
1698412004.9585984,14408.0
1698412004.9790425,14415.0
1698412004.9994864,14423.0
