timestamp,ppg
1698745693.0004408,11506.0
1698745693.021017,11509.0
1698745693.0415933,11511.0
1698745693.0621696,11516.0
1698745693.0827453,11526.0
1698745693.1033216,11517.0
1698745693.1238978,11532.0
1698745693.144474,11529.0
1698745693.16505,11536.0
1698745693.1856263,11539.0
1698745693.2062025,11541.0
1698745693.2267783,11546.0
1698745693.2473545,11539.0
1698745693.267931,11550.0
1698745693.2885067,11554.0
1698745693.309083,11554.0
1698745693.3296592,11556.0
1698745693.3502352,11559.0
1698745693.3708112,11561.0
1698745693.3913877,11563.0
1698745693.4119637,11569.0
1698745693.4325397,11562.0
1698745693.453116,11567.0
1698745693.473692,11564.0
1698745693.4942682,11563.0
1698745693.5148442,11566.0
1698745693.5354204,11562.0
1698745693.5559967,11566.0
1698745693.5765727,11561.0
1698745693.597149,11557.0
1698745693.6177251,11551.0
1698745693.6383011,11542.0
1698745693.6588771,11543.0
1698745693.6794534,11537.0
1698745693.7000296,11533.0
1698745693.7206056,11526.0
1698745693.7411819,11525.0
1698745693.761758,11524.0
1698745693.782334,11519.0
1698745693.80291,11521.0
1698745693.8234863,11521.0
1698745693.8440626,11516.0
1698745693.8646388,11514.0
1698745693.8852148,11510.0
1698745693.905791,11505.0
1698745693.926367,11502.0
1698745693.946943,11499.0
1698745693.9675193,11498.0
1698745693.9880958,11502.0
1698745694.0086715,11503.0
1698745694.0292478,11508.0
1698745694.049824,11502.0
1698745694.0704,11502.0
1698745694.090976,11504.0
1698745694.1115522,11503.0
1698745694.1321285,11505.0
1698745694.1527045,11497.0
1698745694.1732807,11504.0
1698745694.193857,11504.0
1698745694.214433,11501.0
1698745694.235009,11505.0
1698745694.2555852,11500.0
1698745694.2761614,11502.0
1698745694.2967374,11504.0
1698745694.3173137,11515.0
1698745694.33789,11514.0
1698745694.358466,11529.0
1698745694.379042,11532.0
1698745694.3996181,11541.0
1698745694.4201944,11546.0
1698745694.4407706,11548.0
1698745694.4613466,11553.0
1698745694.4819226,11559.0
1698745694.5024989,11561.0
1698745694.5230749,11563.0
1698745694.543651,11571.0
1698745694.5642273,11570.0
1698745694.5848038,11566.0
1698745694.6053796,11564.0
1698745694.6259556,11562.0
1698745694.6465316,11556.0
1698745694.6671078,11560.0
1698745694.687684,11563.0
1698745694.7082605,11555.0
1698745694.7288365,11561.0
1698745694.7494125,11553.0
1698745694.7699883,11557.0
1698745694.7905648,11556.0
1698745694.8111408,11559.0
1698745694.831717,11569.0
1698745694.8522933,11574.0
1698745694.8728695,11575.0
1698745694.8934455,11574.0
1698745694.9140215,11574.0
1698745694.9345977,11581.0
1698745694.9551737,11581.0
1698745694.97575,11589.0
1698745694.9963262,11592.0
1698745695.0169024,11604.0
1698745695.0374784,11601.0
1698745695.0580544,11596.0
1698745695.0786307,11594.0
1698745695.0992067,11591.0
1698745695.119783,11590.0
1698745695.1403592,11581.0
1698745695.1609354,11584.0
1698745695.1815116,11576.0
1698745695.2020874,11571.0
1698745695.2226636,11571.0
1698745695.2432394,11567.0
1698745695.2638159,11557.0
1698745695.284392,11564.0
1698745695.3049686,11565.0
1698745695.3255444,11565.0
1698745695.3461204,11563.0
1698745695.3666964,11566.0
1698745695.3872726,11577.0
1698745695.4078488,11586.0
1698745695.428425,11593.0
1698745695.4490013,11596.0
1698745695.4695773,11593.0
1698745695.4901533,11601.0
1698745695.5107296,11613.0
1698745695.5313056,11626.0
1698745695.5518818,11624.0
1698745695.572458,11626.0
1698745695.5930343,11621.0
1698745695.61361,11626.0
1698745695.6341863,11625.0
1698745695.6547625,11628.0
1698745695.6753385,11626.0
1698745695.6959147,11630.0
1698745695.716491,11633.0
1698745695.7370672,11636.0
1698745695.757643,11643.0
1698745695.7782192,11647.0
1698745695.7987955,11654.0
1698745695.8193717,11635.0
1698745695.8399477,11630.0
1698745695.860524,11627.0
1698745695.8811002,11625.0
1698745695.901676,11614.0
1698745695.9222522,11610.0
1698745695.9428284,11605.0
1698745695.9634042,11598.0
1698745695.9839807,11590.0
1698745696.004557,11582.0
1698745696.0251331,11575.0
1698745696.045709,11572.0
1698745696.0662851,11567.0
1698745696.0868611,11561.0
1698745696.1074376,11562.0
1698745696.1280136,11563.0
1698745696.1485898,11559.0
1698745696.169166,11554.0
1698745696.1897418,11539.0
1698745696.210318,11536.0
1698745696.2308943,11531.0
1698745696.2514706,11530.0
1698745696.2720466,11525.0
1698745696.2926228,11530.0
1698745696.313199,11531.0
1698745696.3337748,11533.0
1698745696.354351,11537.0
1698745696.3749273,11554.0
1698745696.3955035,11551.0
1698745696.4160795,11570.0
1698745696.4366558,11580.0
1698745696.457232,11584.0
1698745696.477808,11582.0
1698745696.498384,11593.0
1698745696.5189602,11593.0
1698745696.5395365,11594.0
1698745696.5601122,11599.0
1698745696.5806887,11599.0
1698745696.601265,11598.0
1698745696.6218407,11596.0
1698745696.642417,11599.0
1698745696.6629932,11604.0
1698745696.6835692,11605.0
1698745696.7041454,11605.0
1698745696.7247217,11614.0
1698745696.7452977,11612.0
1698745696.7658737,11619.0
1698745696.78645,11623.0
1698745696.807026,11625.0
1698745696.8276024,11622.0
1698745696.8481784,11624.0
1698745696.8687546,11620.0
1698745696.8893306,11624.0
1698745696.9099066,11634.0
1698745696.9304829,11633.0
1698745696.951059,11646.0
1698745696.9716353,11642.0
1698745696.9922113,11650.0
1698745697.0127876,11652.0
1698745697.0333636,11656.0
1698745697.0539396,11657.0
1698745697.074516,11655.0
1698745697.095092,11654.0
1698745697.1156683,11652.0
1698745697.1362443,11640.0
1698745697.1568205,11651.0
1698745697.1773965,11652.0
1698745697.197973,11646.0
1698745697.2185488,11650.0
1698745697.239125,11658.0
1698745697.2597013,11651.0
1698745697.280277,11647.0
1698745697.3008535,11646.0
1698745697.3214295,11645.0
1698745697.3420057,11643.0
1698745697.3625817,11639.0
1698745697.383158,11632.0
1698745697.403734,11630.0
1698745697.4243102,11628.0
1698745697.4448864,11624.0
1698745697.4654624,11622.0
1698745697.4860387,11623.0
1698745697.5066147,11634.0
1698745697.527191,11640.0
1698745697.5477672,11647.0
1698745697.5683432,11655.0
1698745697.5889194,11659.0
1698745697.6094954,11646.0
1698745697.6300716,11656.0
1698745697.6506476,11655.0
1698745697.671224,11664.0
1698745697.6918,11669.0
1698745697.712376,11690.0
1698745697.7329524,11687.0
1698745697.7535284,11696.0
1698745697.7741046,11708.0
1698745697.7946808,11717.0
1698745697.8152568,11724.0
1698745697.835833,11720.0
1698745697.856409,11719.0
1698745697.876985,11724.0
1698745697.8975613,11729.0
1698745697.9181378,11717.0
1698745697.9387136,11732.0
1698745697.9592898,11752.0
1698745697.979866,11782.0
1698745698.0004418,11787.0
1698745698.021018,11812.0
1698745698.0415943,11843.0
1698745698.0621705,11861.0
1698745698.0827465,11882.0
1698745698.1033227,11886.0
1698745698.123899,11882.0
1698745698.144475,11880.0
1698745698.165051,11865.0
1698745698.1856272,11853.0
1698745698.2062035,11842.0
1698745698.2267795,11826.0
1698745698.2473557,11822.0
1698745698.267932,11808.0
1698745698.288508,11808.0
1698745698.309084,11810.0
1698745698.3296602,11810.0
1698745698.3502364,11816.0
1698745698.3708124,11812.0
1698745698.391389,11818.0
1698745698.411965,11809.0
1698745698.4325411,11811.0
1698745698.453117,11822.0
1698745698.4736931,11834.0
1698745698.4942694,11840.0
1698745698.5148456,11858.0
1698745698.5354216,11868.0
1698745698.5559978,11879.0
1698745698.576574,11880.0
1698745698.5971498,11882.0
1698745698.617726,11879.0
1698745698.6383023,11880.0
1698745698.6588783,11877.0
1698745698.6794546,11880.0
1698745698.7000308,11882.0
1698745698.720607,11881.0
1698745698.7411828,11894.0
1698745698.761759,11905.0
1698745698.7823353,11933.0
1698745698.8029113,11957.0
1698745698.8234875,11976.0
1698745698.8440638,11966.0
1698745698.86464,11939.0
1698745698.8852158,11915.0
1698745698.905792,11882.0
1698745698.9263682,11864.0
1698745698.9469442,11840.0
1698745698.9675205,11839.0
1698745698.9880967,11836.0
1698745699.0086727,11854.0
1698745699.0292487,11879.0
1698745699.049825,11892.0
1698745699.0704012,11911.0
1698745699.0909772,11942.0
1698745699.1115537,11963.0
1698745699.1321297,11996.0
1698745699.1527057,12001.0
1698745699.1732814,12012.0
1698745699.193858,12015.0
1698745699.2144341,12012.0
1698745699.2350104,11998.0
1698745699.2555864,11987.0
1698745699.2761626,11970.0
1698745699.2967384,11955.0
1698745699.3173146,11952.0
1698745699.3378909,11956.0
1698745699.358467,11957.0
1698745699.379043,11967.0
1698745699.3996193,11969.0
1698745699.4201956,11979.0
1698745699.4407716,12003.0
1698745699.4613476,12035.0
1698745699.4819238,12055.0
1698745699.5025,12084.0
1698745699.523076,12092.0
1698745699.5436523,12103.0
1698745699.5642285,12120.0
1698745699.5848045,12128.0
1698745699.6053805,12139.0
1698745699.6259568,12141.0
1698745699.646533,12145.0
1698745699.667109,12139.0
1698745699.6876853,12142.0
1698745699.7082617,12143.0
1698745699.7288375,12134.0
1698745699.7494135,12135.0
1698745699.7699895,12122.0
1698745699.790566,12120.0
1698745699.8111422,12102.0
1698745699.8317184,12113.0
1698745699.8522944,12108.0
1698745699.8728704,12107.0
1698745699.8934462,12105.0
1698745699.9140227,12104.0
1698745699.934599,12095.0
1698745699.9551752,12101.0
1698745699.9757512,12100.0
1698745699.9963274,12096.0
1698745700.0169034,12091.0
1698745700.0374794,12090.0
1698745700.0580556,12094.0
1698745700.0786319,12095.0
1698745700.099208,12096.0
1698745700.119784,12091.0
1698745700.14036,12085.0
1698745700.1609364,12087.0
1698745700.1815124,12080.0
1698745700.2020886,12085.0
1698745700.2226648,12069.0
1698745700.243241,12068.0
1698745700.263817,12063.0
1698745700.284393,12054.0
1698745700.3049693,12048.0
1698745700.3255453,12048.0
1698745700.3461215,12043.0
1698745700.3666978,12049.0
1698745700.387274,12052.0
1698745700.40785,12061.0
1698745700.428426,12071.0
1698745700.4490023,12093.0
1698745700.4695783,12105.0
1698745700.4901543,12107.0
1698745700.5107307,12115.0
1698745700.531307,12114.0
1698745700.551883,12119.0
1698745700.572459,12115.0
1698745700.5930352,12116.0
1698745700.613611,12112.0
1698745700.6341875,12119.0
1698745700.6547637,12114.0
1698745700.67534,12111.0
1698745700.695916,12114.0
1698745700.716492,12120.0
1698745700.7370682,12130.0
1698745700.7576442,12116.0
1698745700.7782204,12130.0
1698745700.7987967,12135.0
1698745700.819373,12140.0
1698745700.839949,12143.0
1698745700.860525,12146.0
1698745700.8811011,12149.0
1698745700.9016771,12142.0
1698745700.9222534,12140.0
1698745700.9428296,12127.0
1698745700.9634058,12128.0
1698745700.9839818,12126.0
1698745701.004558,12117.0
1698745701.025134,12103.0
1698745701.04571,12110.0
1698745701.0662863,12101.0
1698745701.0868623,12095.0
1698745701.1074388,12094.0
1698745701.1280148,12080.0
1698745701.1485908,12090.0
1698745701.169167,12089.0
1698745701.1897433,12087.0
1698745701.210319,12086.0
1698745701.2308955,12084.0
1698745701.2514718,12087.0
1698745701.2720475,12080.0
1698745701.2926238,12075.0
1698745701.3132,12072.0
1698745701.333776,12071.0
1698745701.3543522,12072.0
1698745701.3749285,12074.0
1698745701.3955047,12072.0
1698745701.4160805,12073.0
1698745701.4366567,12077.0
1698745701.457233,12076.0
1698745701.4778092,12079.0
1698745701.4983852,12091.0
1698745701.5189614,12098.0
1698745701.5395377,12100.0
1698745701.5601134,12102.0
1698745701.5806897,12092.0
1698745701.6012661,12096.0
1698745701.6218421,12100.0
1698745701.6424181,12098.0
1698745701.6629944,12096.0
1698745701.6835706,12078.0
1698745701.7041464,12081.0
1698745701.7247229,12069.0
1698745701.7452989,12062.0
1698745701.765875,12064.0
1698745701.786451,12060.0
1698745701.807027,12061.0
1698745701.8276036,12063.0
1698745701.8481793,12063.0
1698745701.8687556,12059.0
1698745701.8893318,12061.0
1698745701.909908,12066.0
1698745701.9304838,12068.0
1698745701.9510603,12064.0
1698745701.9716365,12064.0
1698745701.9922123,12062.0
1698745702.0127885,12057.0
1698745702.0333648,12061.0
1698745702.053941,12057.0
1698745702.074517,12060.0
1698745702.0950933,12055.0
1698745702.1156695,12054.0
1698745702.1362453,12054.0
1698745702.1568215,12053.0
1698745702.1773977,12054.0
1698745702.1979742,12054.0
1698745702.21855,12052.0
1698745702.2391262,12051.0
1698745702.2597024,12047.0
1698745702.2802782,12044.0
1698745702.3008544,12032.0
1698745702.321431,12024.0
1698745702.342007,12014.0
1698745702.362583,12014.0
1698745702.3831592,12004.0
1698745702.4037352,12005.0
1698745702.4243112,12001.0
1698745702.4448876,11997.0
1698745702.4654636,12001.0
1698745702.4860399,12004.0
1698745702.5066159,12015.0
1698745702.5271919,12028.0
1698745702.547768,12036.0
1698745702.5683444,12039.0
1698745702.5889204,12037.0
1698745702.6094966,12035.0
1698745702.6300728,12037.0
1698745702.6506488,12035.0
1698745702.671225,12035.0
1698745702.691801,12032.0
1698745702.7123773,12021.0
1698745702.7329533,12037.0
1698745702.7535295,12038.0
1698745702.7741058,12042.0
1698745702.7946818,12047.0
1698745702.815258,12041.0
1698745702.835834,12051.0
1698745702.8564103,12056.0
1698745702.8769863,12063.0
1698745702.8975625,12063.0
1698745702.918139,12068.0
1698745702.9387147,12062.0
1698745702.959291,12066.0
1698745702.979867,12060.0
1698745703.0004432,12059.0
1698745703.0210192,12048.0
1698745703.0415957,12041.0
1698745703.0621717,12034.0
1698745703.0827477,12041.0
1698745703.103324,12022.0
1698745703.1239,12018.0
1698745703.1444762,12014.0
1698745703.1650522,12018.0
1698745703.1856284,12020.0
1698745703.2062047,12013.0
1698745703.2267807,12015.0
1698745703.247357,12011.0
1698745703.267933,12014.0
1698745703.2885091,12009.0
1698745703.3090851,12011.0
1698745703.3296614,12008.0
1698745703.3502376,12011.0
1698745703.3708136,12010.0
1698745703.3913898,11997.0
1698745703.4119658,12000.0
1698745703.432542,11991.0
1698745703.453118,11987.0
1698745703.4736943,11991.0
1698745703.4942706,11990.0
1698745703.5148466,11995.0
1698745703.5354226,11978.0
1698745703.5559988,11995.0
1698745703.576575,11993.0
1698745703.597151,11997.0
1698745703.6177273,11993.0
1698745703.6383038,11977.0
1698745703.6588798,11981.0
1698745703.6794555,11979.0
1698745703.7000315,11974.0
1698745703.720608,11972.0
1698745703.741184,11975.0
1698745703.7617605,11960.0
1698745703.7823365,11967.0
1698745703.8029127,11971.0
1698745703.8234882,11972.0
1698745703.8440647,11984.0
1698745703.864641,11977.0
1698745703.885217,11981.0
1698745703.9057932,11991.0
1698745703.9263694,12004.0
1698745703.9469457,12015.0
1698745703.9675214,12031.0
1698745703.9880977,12044.0
1698745704.008674,12052.0
1698745704.02925,12056.0
1698745704.0498261,12057.0
1698745704.0704024,12048.0
1698745704.0909786,12045.0
1698745704.1115544,12049.0
1698745704.1321306,12044.0
1698745704.1527069,12036.0
1698745704.1732829,12033.0
1698745704.193859,12034.0
1698745704.2144353,12047.0
1698745704.2350118,12035.0
1698745704.2555873,12030.0
1698745704.2761636,12031.0
1698745704.2967396,12025.0
1698745704.3173158,12023.0
1698745704.337892,12009.0
1698745704.3584685,11997.0
1698745704.3790445,11988.0
1698745704.3996203,11976.0
1698745704.4201963,11973.0
1698745704.4407728,11952.0
1698745704.4613488,11944.0
1698745704.481925,11932.0
1698745704.5025012,11919.0
1698745704.5230775,11926.0
1698745704.5436532,11918.0
1698745704.5642295,11923.0
1698745704.5848057,11938.0
1698745704.6053817,11928.0
1698745704.625958,11934.0
1698745704.6465342,11934.0
1698745704.6671102,11936.0
1698745704.6876862,11937.0
1698745704.7082624,11946.0
1698745704.7288387,11955.0
1698745704.7494147,11957.0
1698745704.769991,11964.0
1698745704.7905672,11965.0
1698745704.8111432,11967.0
1698745704.8317192,11973.0
1698745704.8522954,11971.0
1698745704.8728716,11988.0
1698745704.8934476,11981.0
1698745704.9140239,11980.0
1698745704.9346,11987.0
1698745704.955176,11984.0
1698745704.975752,11993.0
1698745704.9963284,11995.0
1698745705.0169044,11999.0
1698745705.0374808,12013.0
1698745705.0580568,12007.0
1698745705.078633,12012.0
1698745705.099209,12012.0
1698745705.119785,12012.0
1698745705.140361,12016.0
1698745705.1609375,12017.0
1698745705.1815138,12002.0
1698745705.2020898,12005.0
1698745705.222666,12004.0
1698745705.243242,12005.0
1698745705.263818,12012.0
1698745705.2843943,12012.0
1698745705.3049705,12026.0
1698745705.3255467,12021.0
1698745705.3461227,12035.0
1698745705.366699,12034.0
1698745705.387275,12028.0
1698745705.407851,12030.0
1698745705.4284272,12031.0
1698745705.4490035,12018.0
1698745705.4695797,12011.0
1698745705.4901557,12008.0
1698745705.510732,12006.0
1698745705.5313082,11997.0
1698745705.551884,11991.0
1698745705.5724602,11991.0
1698745705.5930364,11987.0
1698745705.6136124,11974.0
1698745705.6341887,11973.0
1698745705.654765,11977.0
1698745705.675341,11980.0
1698745705.695917,11973.0
1698745705.7164931,11984.0
1698745705.7370691,11979.0
1698745705.7576456,11980.0
1698745705.7782216,11981.0
1698745705.7987976,11975.0
1698745705.8193738,11977.0
1698745705.8399498,11976.0
1698745705.8605258,11977.0
1698745705.8811023,11979.0
1698745705.9016786,11994.0
1698745705.9222546,11989.0
1698745705.9428306,11994.0
1698745705.9634068,11991.0
1698745705.9839828,12000.0
1698745706.004559,12005.0
1698745706.0251353,12011.0
1698745706.0457115,12016.0
1698745706.0662875,12026.0
1698745706.0868635,12030.0
1698745706.1074398,12038.0
1698745706.128016,12038.0
1698745706.148592,12044.0
1698745706.1691682,12038.0
1698745706.1897445,12043.0
1698745706.2103205,12043.0
1698745706.2308965,12037.0
1698745706.251473,12042.0
1698745706.2720487,12061.0
1698745706.292625,12045.0
1698745706.3132012,12039.0
1698745706.3337772,12042.0
1698745706.3543534,12043.0
1698745706.3749294,12032.0
1698745706.3955057,12043.0
1698745706.416082,12038.0
1698745706.436658,12038.0
1698745706.457234,12031.0
1698745706.4778104,12032.0
1698745706.4983864,12028.0
1698745706.5189624,12023.0
1698745706.5395386,12022.0
1698745706.5601149,12007.0
1698745706.5806909,11997.0
1698745706.601267,11991.0
1698745706.6218433,11979.0
1698745706.6424193,11990.0
1698745706.6629953,11987.0
1698745706.6835716,11988.0
1698745706.7041478,11987.0
1698745706.724724,11992.0
1698745706.7453,12005.0
1698745706.7658763,12004.0
1698745706.7864523,12004.0
1698745706.8070283,12010.0
1698745706.8276045,12012.0
1698745706.848181,12017.0
1698745706.8687568,12012.0
1698745706.889333,12016.0
1698745706.9099092,12008.0
1698745706.930485,12013.0
1698745706.9510612,12015.0
1698745706.9716377,12012.0
1698745706.9922137,12014.0
1698745707.0127897,12014.0
1698745707.033366,12024.0
1698745707.053942,12026.0
1698745707.074518,12038.0
1698745707.0950942,12039.0
1698745707.1156704,12045.0
1698745707.1362467,12055.0
1698745707.1568227,12057.0
1698745707.177399,12057.0
1698745707.1979752,12063.0
1698745707.218551,12056.0
1698745707.2391272,12063.0
1698745707.2597034,12059.0
1698745707.2802796,12061.0
1698745707.3008556,12059.0
1698745707.3214319,12060.0
1698745707.342008,12077.0
1698745707.3625839,12076.0
1698745707.38316,12074.0
1698745707.4037364,12069.0
1698745707.4243126,12086.0
1698745707.4448888,12060.0
1698745707.4654648,12056.0
1698745707.486041,12054.0
1698745707.5066168,12050.0
1698745707.527193,12048.0
1698745707.5477693,12039.0
1698745707.5683458,12034.0
1698745707.5889215,12023.0
1698745707.6094978,12015.0
1698745707.630074,11991.0
1698745707.6506498,11992.0
1698745707.671226,11986.0
1698745707.6918023,11981.0
1698745707.7123785,11986.0
1698745707.7329545,11985.0
1698745707.7535307,11988.0
1698745707.774107,11990.0
1698745707.794683,11995.0
1698745707.815259,11994.0
1698745707.8358352,11994.0
1698745707.8564115,11997.0
1698745707.8769875,11997.0
1698745707.8975637,12003.0
1698745707.91814,11998.0
1698745707.938716,12001.0
1698745707.959292,12000.0
1698745707.9798682,12002.0
1698745708.0004444,11997.0
1698745708.0210204,12002.0
1698745708.0415967,12003.0
1698745708.0621727,12012.0
1698745708.082749,12020.0
1698745708.103325,12016.0
1698745708.1239011,12028.0
1698745708.1444774,12025.0
1698745708.1650536,12033.0
1698745708.1856296,12035.0
1698745708.2062056,12032.0
1698745708.2267816,12034.0
1698745708.2473578,12031.0
1698745708.267934,12034.0
1698745708.2885106,12024.0
1698745708.3090863,12020.0
1698745708.3296626,12014.0
1698745708.3502383,12014.0
1698745708.3708148,12009.0
1698745708.3913908,12017.0
1698745708.411967,12014.0
1698745708.4325433,12010.0
1698745708.4531193,12011.0
1698745708.4736955,12002.0
1698745708.4942715,12007.0
1698745708.5148478,12006.0
1698745708.5354238,12004.0
1698745708.5765762,11999.0
1698745708.5971522,11997.0
1698745708.6177285,11990.0
1698745708.6383045,11987.0
1698745708.6588807,11981.0
1698745708.6794567,11971.0
1698745708.700033,11968.0
1698745708.7206092,11971.0
1698745708.7411852,11978.0
1698745708.7617617,11990.0
1698745708.7823374,11985.0
1698745708.8029137,11988.0
1698745708.8234894,11994.0
1698745708.844066,11986.0
1698745708.8646421,11989.0
1698745708.8852186,11984.0
1698745708.9057944,11979.0
1698745708.9263704,11979.0
1698745708.9469464,11973.0
1698745708.9675226,11977.0
1698745708.9880989,11965.0
1698745709.008675,11958.0
1698745709.0292513,11956.0
1698745709.0498273,11954.0
1698745709.0704033,11952.0
1698745709.0909796,11952.0
1698745709.1115556,11951.0
1698745709.1321318,11959.0
1698745709.152708,11955.0
1698745709.1732843,11953.0
1698745709.19386,11954.0
1698745709.2144363,11957.0
1698745709.2350125,11944.0
1698745709.2555885,11962.0
1698745709.2761648,11958.0
1698745709.296741,11957.0
1698745709.3173172,11956.0
1698745709.337893,11954.0
1698745709.3584692,11961.0
1698745709.3790455,11969.0
1698745709.3996215,11971.0
1698745709.4201977,11977.0
1698745709.440774,11973.0
1698745709.4613502,11972.0
1698745709.481926,11971.0
1698745709.5025022,11982.0
1698745709.5230784,11969.0
1698745709.5436542,11971.0
1698745709.5642307,11961.0
1698745709.584807,11956.0
1698745709.6053832,11952.0
1698745709.625959,11958.0
1698745709.6465352,11947.0
1698745709.6671112,11944.0
1698745709.6876874,11932.0
1698745709.7082636,11930.0
1698745709.7288399,11926.0
1698745709.749416,11926.0
1698745709.7699919,11929.0
1698745709.790568,11927.0
1698745709.8111444,11931.0
1698745709.8317204,11929.0
1698745709.8522966,11931.0
1698745709.8728728,11927.0
1698745709.893449,11927.0
1698745709.9140248,11924.0
1698745709.934601,11925.0
1698745709.9551773,11921.0
1698745709.9757533,11930.0
1698745709.9963295,11930.0
1698745710.0169058,11924.0
1698745710.037482,11934.0
1698745710.058058,11938.0
1698745710.078634,11944.0
1698745710.0992103,11947.0
1698745710.1197863,11952.0
1698745710.1403623,11959.0
1698745710.1609387,11955.0
1698745710.181515,11959.0
1698745710.2020907,11955.0
1698745710.222667,11951.0
1698745710.2432432,11949.0
1698745710.263819,11942.0
1698745710.2843955,11937.0
1698745710.3049717,11941.0
1698745710.3255477,11943.0
1698745710.3461237,11929.0
1698745710.3667,11937.0
1698745710.387276,11930.0
1698745710.4078524,11927.0
1698745710.4284284,11928.0
1698745710.4490047,11926.0
1698745710.4695807,11921.0
1698745710.4901567,11925.0
1698745710.510733,11930.0
1698745710.5313091,11932.0
1698745710.5518854,11933.0
1698745710.5724614,11938.0
1698745710.5930376,11938.0
1698745710.6136136,11931.0
1698745710.6341896,11941.0
1698745710.654766,11937.0
1698745710.675342,11935.0
1698745710.6959183,11938.0
1698745710.7164943,11932.0
1698745710.7370706,11922.0
1698745710.7576466,11920.0
1698745710.7782228,11924.0
1698745710.7987988,11922.0
1698745710.819375,11923.0
1698745710.8399513,11929.0
1698745710.860527,11936.0
1698745710.8811035,11936.0
1698745710.9016795,11941.0
1698745710.9222555,11935.0
1698745710.9428318,11926.0
1698745710.963408,11936.0
1698745710.983984,11935.0
1698745711.0045602,11951.0
1698745711.0251365,11932.0
1698745711.0457125,11933.0
1698745711.0662885,11929.0
1698745711.0868647,11925.0
1698745711.107441,11923.0
1698745711.1280172,11914.0
1698745711.1485932,11918.0
1698745711.1691694,11914.0
1698745711.1897454,11913.0
1698745711.2103214,11914.0
1698745711.2308977,11913.0
1698745711.2514741,11916.0
1698745711.2720501,11917.0
1698745711.2926261,11920.0
1698745711.3132024,11926.0
1698745711.3337784,11927.0
1698745711.3543544,11932.0
1698745711.3749309,11938.0
1698745711.3955069,11933.0
1698745711.416083,11942.0
1698745711.436659,11940.0
1698745711.457235,11941.0
1698745711.4778113,11944.0
1698745711.4983878,11937.0
1698745711.5189636,11938.0
1698745711.5395398,11937.0
1698745711.560116,11950.0
1698745711.5806918,11949.0
1698745711.601268,11947.0
1698745711.6218443,11940.0
1698745711.6424203,11936.0
1698745711.6629965,11929.0
1698745711.6835728,11932.0
1698745711.704149,11936.0
1698745711.724725,11929.0
1698745711.745301,11932.0
1698745711.7658772,11932.0
1698745711.7864535,11931.0
1698745711.8070295,11939.0
1698745711.8276057,11943.0
1698745711.848182,11954.0
1698745711.868758,11951.0
1698745711.889334,11955.0
1698745711.9099102,11957.0
1698745711.9304864,11953.0
1698745711.9510624,11954.0
1698745711.971639,11957.0
1698745711.992215,11953.0
1698745712.012791,11948.0
1698745712.033367,11944.0
1698745712.0539432,11936.0
1698745712.0745194,11946.0
1698745712.0950956,11944.0
1698745712.1156716,11945.0
1698745712.1362479,11955.0
1698745712.1568239,11956.0
1698745712.1773999,11953.0
1698745712.197976,11956.0
1698745712.2185524,11961.0
1698745712.2391284,11960.0
1698745712.2597046,11952.0
1698745712.2802808,11969.0
1698745712.3008568,11969.0
1698745712.3214328,11967.0
1698745712.342009,11963.0
1698745712.3625853,11976.0
1698745712.3831613,11953.0
1698745712.4037375,11959.0
1698745712.4243138,11956.0
1698745712.4448898,11959.0
1698745712.4654658,11970.0
1698745712.486042,11962.0
1698745712.5066183,11964.0
1698745712.5271943,11962.0
1698745712.5477705,11957.0
1698745712.5683467,11945.0
1698745712.5889225,11950.0
1698745712.6094987,11947.0
1698745712.630075,11948.0
1698745712.6506512,11941.0
1698745712.6712272,11948.0
1698745712.6918037,11948.0
1698745712.7123797,11948.0
1698745712.7329555,11934.0
1698745712.7535315,11943.0
1698745712.774108,11953.0
1698745712.7946842,11960.0
1698745712.8152604,11966.0
1698745712.8358364,11967.0
1698745712.8564126,11979.0
1698745712.8769882,11986.0
1698745712.8975646,11988.0
1698745712.918141,11993.0
1698745712.9387171,11991.0
1698745712.9592931,11999.0
1698745712.9798694,12004.0
1698745713.0004456,12010.0
1698745713.0210214,12012.0
1698745713.0415976,12013.0
1698745713.0621738,12015.0
1698745713.08275,12017.0
1698745713.103326,12015.0
1698745713.1239023,12001.0
1698745713.1444786,12005.0
1698745713.1650546,12006.0
1698745713.1856306,11998.0
1698745713.2062068,12000.0
1698745713.226783,11986.0
1698745713.247359,11986.0
1698745713.2679353,11992.0
1698745713.2885118,11982.0
1698745713.3090875,11982.0
1698745713.3296635,11992.0
1698745713.3502395,11990.0
1698745713.370816,11992.0
1698745713.391392,11994.0
1698745713.4119685,11996.0
1698745713.4325445,11985.0
1698745713.4531205,11991.0
1698745713.4736962,11989.0
1698745713.4942727,11990.0
1698745713.514849,11995.0
1698745713.535425,11990.0
1698745713.5560012,11989.0
1698745713.5765774,11985.0
1698745713.5971534,11985.0
1698745713.6177294,11994.0
1698745713.6383057,11984.0
1698745713.658882,11977.0
1698745713.679458,11978.0
1698745713.7000341,11975.0
1698745713.7206101,11970.0
1698745713.7411864,11969.0
1698745713.7617624,11961.0
1698745713.7823386,11953.0
1698745713.8029149,11952.0
1698745713.8234909,11953.0
1698745713.844067,11947.0
1698745713.864643,11951.0
1698745713.8852193,11956.0
1698745713.9057953,11960.0
1698745713.9263716,11963.0
1698745713.9469478,11962.0
1698745713.9675238,11965.0
1698745713.9881,11961.0
1698745714.008676,11961.0
1698745714.0292523,11964.0
1698745714.0498283,11964.0
1698745714.0704043,11960.0
1698745714.0909808,11965.0
1698745714.1115568,11955.0
1698745714.132133,11959.0
1698745714.152709,11959.0
1698745714.1732852,11958.0
1698745714.193861,11962.0
1698745714.2144375,11959.0
1698745714.2350137,11955.0
1698745714.25559,11949.0
1698745714.276166,11948.0
1698745714.296742,11944.0
1698745714.3173182,11941.0
1698745714.3378942,11942.0
1698745714.3584704,11936.0
1698745714.3790467,11937.0
1698745714.399623,11936.0
1698745714.420199,11936.0
1698745714.440775,11938.0
1698745714.4613512,11935.0
1698745714.4819272,11935.0
1698745714.5025034,11934.0
1698745714.5230796,11930.0
1698745714.5436559,11927.0
1698745714.5642319,11919.0
1698745714.584808,11923.0
1698745714.605384,11920.0
1698745714.62596,11917.0
1698745714.6465364,11917.0
1698745714.6671124,11905.0
1698745714.6876888,11915.0
1698745714.7082648,11918.0
1698745714.7288408,11917.0
1698745714.749417,11913.0
1698745714.769993,11916.0
1698745714.790569,11912.0
1698745714.8111455,11915.0
1698745714.8317218,11907.0
1698745714.8522975,11915.0
1698745714.8728738,11914.0
1698745714.89345,11910.0
1698745714.9140258,11913.0
1698745714.9346023,11911.0
1698745714.9551785,11913.0
1698745714.9757547,11916.0
1698745714.9963305,11905.0
1698745715.0169067,11902.0
1698745715.037483,11901.0
1698745715.058059,11904.0
1698745715.0786352,11903.0
1698745715.0992115,11905.0
1698745715.1197877,11906.0
1698745715.1403635,11892.0
1698745715.1609397,11900.0
1698745715.1815162,11903.0
1698745715.202092,11901.0
1698745715.2226682,11901.0
1698745715.2432444,11907.0
1698745715.2638206,11906.0
1698745715.2843964,11904.0
1698745715.304973,11909.0
1698745715.325549,11909.0
1698745715.346125,11914.0
1698745715.3667011,11916.0
1698745715.3872771,11916.0
1698745715.4078536,11912.0
1698745715.4284294,11924.0
1698745715.4490056,11922.0
1698745715.4695818,11931.0
1698745715.4901578,11934.0
1698745715.5107338,11937.0
1698745715.5313103,11935.0
1698745715.5518866,11948.0
1698745715.5724623,11949.0
1698745715.5930386,11943.0
1698745715.6136148,11942.0
1698745715.634191,11935.0
1698745715.654767,11935.0
1698745715.6753433,11928.0
1698745715.6959195,11925.0
1698745715.7164953,11915.0
1698745715.7370715,11918.0
1698745715.7576478,11916.0
1698745715.7782242,11913.0
1698745715.7988,11905.0
1698745715.8193762,11916.0
1698745715.8399525,11902.0
1698745715.8605282,11898.0
1698745715.8811045,11893.0
1698745715.901681,11885.0
1698745715.922257,11878.0
1698745715.942833,11877.0
1698745715.9634092,11871.0
1698745715.9839852,11862.0
1698745716.0045612,11859.0
1698745716.0251377,11859.0
1698745716.0457137,11857.0
1698745716.06629,11851.0
1698745716.086866,11857.0
1698745716.107442,11850.0
1698745716.1280181,11852.0
1698745716.1485941,11854.0
1698745716.1691704,11852.0
1698745716.1897466,11863.0
1698745716.2103229,11849.0
1698745716.2308989,11852.0
1698745716.251475,11852.0
1698745716.272051,11853.0
1698745716.292627,11861.0
1698745716.3132033,11855.0
1698745716.3337796,11856.0
1698745716.3543558,11855.0
1698745716.3749318,11856.0
1698745716.395508,11860.0
1698745716.416084,11850.0
1698745716.43666,11858.0
1698745716.4572363,11854.0
1698745716.4778125,11855.0
1698745716.498389,11852.0
1698745716.5189648,11857.0
1698745716.539541,11856.0
1698745716.560117,11853.0
1698745716.580693,11858.0
1698745716.6012692,11861.0
1698745716.6218457,11865.0
1698745716.6424217,11869.0
1698745716.6629977,11866.0
1698745716.683574,11855.0
1698745716.70415,11853.0
1698745716.724726,11849.0
1698745716.7453022,11838.0
1698745716.7658784,11836.0
1698745716.7864547,11837.0
1698745716.8070307,11845.0
1698745716.827607,11846.0
1698745716.848183,11842.0
1698745716.868759,11848.0
1698745716.8893352,11858.0
1698745716.9099114,11856.0
1698745716.9304876,11847.0
1698745716.9510636,11854.0
1698745716.9716399,11842.0
1698745716.9922159,11839.0
1698745717.012792,11836.0
1698745717.033368,11834.0
1698745717.0539443,11830.0
1698745717.0745206,11828.0
1698745717.0950966,11818.0
1698745717.1156726,11818.0
1698745717.1362488,11816.0
1698745717.156825,11817.0
1698745717.177401,11812.0
1698745717.1979773,11809.0
1698745717.2185538,11811.0
1698745717.2391295,11810.0
1698745717.2597055,11818.0
1698745717.2802815,11807.0
1698745717.300858,11810.0
1698745717.321434,11814.0
1698745717.3420105,11811.0
1698745717.3625865,11808.0
1698745717.3831625,11824.0
1698745717.4037383,11824.0
1698745717.4243147,11823.0
1698745717.444891,11825.0
1698745717.465467,11811.0
1698745717.4860432,11827.0
1698745717.5066195,11829.0
1698745717.5271955,11834.0
1698745717.5477715,11835.0
1698745717.5683477,11837.0
1698745717.588924,11836.0
1698745717.6095,11840.0
1698745717.6300762,11845.0
1698745717.6506524,11841.0
1698745717.6712284,11838.0
1698745717.6918044,11845.0
1698745717.7123806,11844.0
1698745717.732957,11837.0
1698745717.753533,11850.0
1698745717.7741091,11848.0
1698745717.7946854,11843.0
1698745717.8152616,11838.0
1698745717.8358374,11827.0
1698745717.8564136,11830.0
1698745717.8769896,11828.0
1698745717.8975658,11825.0
1698745717.918142,11828.0
1698745717.9387186,11838.0
1698745717.9592943,11841.0
1698745717.9798703,11849.0
1698745718.0004463,11863.0
1698745718.0210228,11855.0
1698745718.0415988,11854.0
1698745718.062175,11857.0
1698745718.0827513,11857.0
1698745718.1033273,11861.0
1698745718.1239033,11862.0
1698745718.1444795,11859.0
1698745718.1650558,11862.0
1698745718.1856318,11869.0
1698745718.206208,11866.0
1698745718.2267842,11873.0
1698745718.24736,11866.0
1698745718.2679362,11874.0
1698745718.2885125,11863.0
1698745718.3090887,11859.0
1698745718.3296647,11855.0
1698745718.350241,11851.0
1698745718.3708172,11849.0
1698745718.3913932,11861.0
1698745718.4119692,11863.0
1698745718.4325454,11852.0
1698745718.4531217,11856.0
1698745718.4736977,11855.0
1698745718.494274,11861.0
1698745718.5148501,11862.0
1698745718.5354261,11867.0
1698745718.5560021,11869.0
1698745718.5765784,11868.0
1698745718.5971544,11867.0
1698745718.6177306,11871.0
1698745718.6383069,11873.0
1698745718.658883,11868.0
1698745718.679459,11870.0
1698745718.700035,11863.0
1698745718.720611,11861.0
1698745718.7411876,11873.0
1698745718.7617636,11877.0
1698745718.7823398,11888.0
1698745718.802916,11884.0
1698745718.823492,11890.0
1698745718.844068,11892.0
1698745718.8646443,11892.0
1698745718.8852205,11901.0
1698745718.9057965,11888.0
1698745718.9263728,11890.0
1698745718.946949,11888.0
1698745718.967525,11888.0
1698745718.988101,11892.0
1698745719.0086772,11894.0
1698745719.0292535,11890.0
1698745719.0498295,11890.0
1698745719.0704057,11890.0
1698745719.090982,11895.0
1698745719.1115582,11896.0
1698745719.132134,11897.0
1698745719.1527102,11905.0
1698745719.1732864,11908.0
1698745719.1938622,11918.0
1698745719.2144387,11927.0
1698745719.235015,11933.0
1698745719.255591,11960.0
1698745719.276167,11970.0
1698745719.2967432,11967.0
1698745719.3173192,11966.0
1698745719.3378954,11973.0
1698745719.3584716,11967.0
1698745719.3790476,11963.0
1698745719.3996239,11964.0
1698745719.4201999,11966.0
1698745719.4407759,11973.0
1698745719.4613523,11975.0
1698745719.4819283,11977.0
1698745719.5025046,11987.0
1698745719.5230806,11991.0
1698745719.5436568,11994.0
1698745719.5642328,11996.0
1698745719.584809,11998.0
1698745719.6053853,11999.0
1698745719.6259615,12003.0
1698745719.6465375,12002.0
1698745719.6671135,11997.0
1698745719.6876898,11997.0
1698745719.708266,11993.0
1698745719.728842,11986.0
1698745719.7494183,11979.0
1698745719.7699945,11974.0
1698745719.7905705,11972.0
1698745719.8111465,11984.0
1698745719.831723,11977.0
1698745719.8522987,11983.0
1698745719.872875,11996.0
1698745719.8934512,11996.0
1698745719.9140272,12009.0
1698745719.9346035,11999.0
1698745719.9551795,12013.0
1698745719.9757557,12014.0
1698745719.9963317,12010.0
1698745720.016908,12012.0
1698745720.037484,12020.0
1698745720.0580604,12021.0
1698745720.0786364,12046.0
1698745720.0992124,12036.0
1698745720.1197886,12047.0
1698745720.1403646,12048.0
1698745720.160941,12050.0
1698745720.1815171,12059.0
1698745720.2020934,12059.0
1698745720.2226694,12063.0
1698745720.2432454,12070.0
1698745720.2638216,12067.0
1698745720.2843976,12066.0
1698745720.304974,12070.0
1698745720.32555,12070.0
1698745720.3461263,12064.0
1698745720.3667023,12059.0
1698745720.3872783,12051.0
1698745720.4078546,12055.0
1698745720.4284308,12047.0
1698745720.4490068,12043.0
1698745720.469583,12043.0
1698745720.4901593,12038.0
1698745720.510735,12041.0
1698745720.5313113,12045.0
1698745720.5518878,12055.0
1698745720.5724635,12046.0
1698745720.5930398,12051.0
1698745720.613616,12049.0
1698745720.634192,12053.0
1698745720.654768,12053.0
1698745720.6753442,12057.0
1698745720.6959205,12047.0
1698745720.7164965,12050.0
1698745720.7370727,12052.0
1698745720.757649,12042.0
1698745720.7782252,12038.0
1698745720.798801,12042.0
1698745720.8193772,12041.0
1698745720.8399534,12041.0
1698745720.8605294,12037.0
1698745720.8811057,12033.0
1698745720.901682,12045.0
1698745720.9222581,12049.0
1698745720.942834,12049.0
1698745720.9634101,12061.0
1698745720.9839864,12057.0
1698745721.0045626,12060.0
1698745721.0251389,12061.0
1698745721.0457149,12056.0
1698745721.066291,12060.0
1698745721.0868669,12060.0
1698745721.107443,12058.0
1698745721.1280193,12062.0
1698745721.1485958,12059.0
1698745721.1691716,12062.0
1698745721.1897478,12055.0
1698745721.210324,12061.0
1698745721.2308998,12079.0
1698745721.251476,12071.0
1698745721.2720523,12062.0
1698745721.2926285,12063.0
1698745721.3132045,12067.0
1698745721.3337808,12070.0
1698745721.354357,12069.0
1698745721.3749328,12062.0
1698745721.395509,12064.0
1698745721.4160852,12068.0
1698745721.4366615,12058.0
1698745721.4572375,12059.0
1698745721.4778137,12060.0
1698745721.49839,12058.0
1698745721.5189657,12060.0
1698745721.539542,12056.0
1698745721.5601182,12061.0
1698745721.5806944,12054.0
1698745721.6012704,12047.0
1698745721.6218467,12056.0
1698745721.6424227,12050.0
1698745721.6629987,12048.0
1698745721.683575,12044.0
1698745721.7041512,12039.0
1698745721.7247274,12044.0
1698745721.7453036,12035.0
1698745721.7658796,12032.0
1698745721.7864556,12032.0
1698745721.8070314,12024.0
1698745721.8276079,12016.0
1698745721.848184,12009.0
1698745721.8687606,12004.0
1698745721.8893363,12002.0
1698745721.9099126,11997.0
1698745721.9304883,12007.0
1698745721.9510646,12009.0
1698745721.9716408,12015.0
1698745721.992217,12018.0
1698745722.0127933,12017.0
1698745722.0333693,12019.0
1698745722.0539455,12021.0
1698745722.0745215,12028.0
1698745722.0950975,12014.0
1698745722.1156738,12016.0
1698745722.13625,12014.0
1698745722.1568263,12012.0
1698745722.1774023,12010.0
1698745722.1979785,12009.0
1698745722.2185545,12007.0
1698745722.2391305,12008.0
1698745722.2597067,12015.0
1698745722.280283,12002.0
1698745722.3008592,11997.0
1698745722.3214352,11991.0
1698745722.3420117,11988.0
1698745722.3625875,11995.0
1698745722.3831637,11976.0
1698745722.4037395,11971.0
1698745722.424316,11973.0
1698745722.4448922,11965.0
1698745722.4654684,11962.0
1698745722.4860444,11970.0
1698745722.5066204,11958.0
1698745722.5271964,11960.0
1698745722.5477726,11961.0
1698745722.568349,11953.0
1698745722.5889251,11960.0
1698745722.6095011,11954.0
1698745722.6300774,11950.0
1698745722.6506534,11950.0
1698745722.6712296,11948.0
1698745722.6918056,11949.0
1698745722.7123818,11951.0
1698745722.732958,11961.0
1698745722.753534,11958.0
1698745722.77411,11956.0
1698745722.7946863,11964.0
1698745722.8152626,11958.0
1698745722.8358386,11960.0
1698745722.8564148,11958.0
1698745722.876991,11956.0
1698745722.897567,11954.0
1698745722.918143,11947.0
1698745722.9387193,11942.0
1698745722.9592955,11926.0
1698745722.9798715,11920.0
1698745723.0004478,11915.0
1698745723.021024,11919.0
1698745723.0416,11927.0
1698745723.062176,11930.0
1698745723.0827522,11932.0
1698745723.1033285,11943.0
1698745723.1239042,11938.0
1698745723.1444807,11944.0
1698745723.165057,11945.0
1698745723.185633,11942.0
1698745723.206209,11937.0
1698745723.2267852,11940.0
1698745723.2473612,11948.0
1698745723.2679374,11948.0
1698745723.2885137,11944.0
1698745723.30909,11955.0
1698745723.329666,11961.0
1698745723.350242,11964.0
1698745723.3708181,11965.0
1698745723.3913944,11977.0
1698745723.4119704,11987.0
1698745723.4325466,11993.0
1698745723.4531229,11994.0
1698745723.473699,12010.0
1698745723.4942749,12015.0
1698745723.514851,12023.0
1698745723.5354273,12027.0
1698745723.5560033,12032.0
1698745723.5765796,12026.0
1698745723.5971558,12025.0
1698745723.617732,12027.0
1698745723.638308,12028.0
1698745723.658884,12033.0
1698745723.6794603,12039.0
1698745723.7000363,12031.0
1698745723.7206123,12023.0
1698745723.7411888,12025.0
1698745723.761765,12026.0
1698745723.7823408,12012.0
1698745723.802917,12025.0
1698745723.8234932,12022.0
1698745723.844069,12018.0
1698745723.8646455,12021.0
1698745723.8852217,12027.0
1698745723.9057977,12017.0
1698745723.9263737,12021.0
1698745723.94695,12020.0
1698745723.967526,12017.0
1698745723.9881022,12021.0
1698745724.0086784,11999.0
1698745724.0292547,11992.0
1698745724.0498307,11995.0
1698745724.0704067,11998.0
1698745724.090983,12003.0
1698745724.1115592,12010.0
1698745724.1321352,12009.0
1698745724.1527114,12021.0
1698745724.1732876,12031.0
1698745724.1938636,12042.0
1698745724.2144396,12045.0
1698745724.235016,12050.0
1698745724.255592,12041.0
1698745724.276168,12035.0
1698745724.2967443,12031.0
1698745724.3173206,12017.0
1698745724.3378966,12013.0
1698745724.3584728,12013.0
1698745724.3790488,11995.0
1698745724.399625,11996.0
1698745724.420201,11999.0
1698745724.440777,11990.0
1698745724.4613535,11998.0
1698745724.4819295,11991.0
1698745724.5025055,11990.0
1698745724.5230818,11979.0
1698745724.543658,11985.0
1698745724.5642338,11978.0
1698745724.5848103,11983.0
1698745724.6053865,11966.0
1698745724.6259625,11974.0
1698745724.6465385,11969.0
1698745724.6671147,11973.0
1698745724.687691,11965.0
1698745724.708267,11954.0
1698745724.7288432,11961.0
1698745724.7494195,11960.0
1698745724.7699955,11964.0
1698745724.7905715,11959.0
1698745724.8111477,11960.0
1698745724.8317242,11967.0
1698745724.8523002,11966.0
1698745724.8728762,11967.0
1698745724.8934524,11966.0
1698745724.9140284,11963.0
1698745724.9346044,11964.0
1698745724.955181,11962.0
1698745724.975757,11957.0
1698745724.9963331,11946.0
1698745725.0169091,11950.0
1698745725.0374851,11940.0
1698745725.0580614,11939.0
1698745725.0786376,11926.0
1698745725.0992136,11921.0
1698745725.1197898,11929.0
1698745725.140366,11938.0
1698745725.1609418,11938.0
1698745725.181518,11935.0
1698745725.2020943,11947.0
1698745725.2226703,11950.0
1698745725.2432466,11953.0
1698745725.2638228,11949.0
1698745725.284399,11943.0
1698745725.304975,11940.0
1698745725.325551,11941.0
1698745725.3461273,11936.0
1698745725.3667033,11937.0
1698745725.3872795,11932.0
1698745725.4078557,11938.0
1698745725.428432,11933.0
1698745725.449008,11933.0
1698745725.469584,11939.0
1698745725.4901602,11937.0
1698745725.5107362,11932.0
1698745725.5313125,11932.0
1698745725.551889,11947.0
1698745725.572465,11940.0
1698745725.593041,11942.0
1698745725.613617,11935.0
1698745725.6341932,11940.0
1698745725.6547692,11941.0
1698745725.6753457,11941.0
1698745725.6959217,11940.0
1698745725.716498,11938.0
1698745725.737074,11940.0
1698745725.75765,11939.0
1698745725.7782261,11934.0
1698745725.7988021,11935.0
1698745725.8193784,11938.0
1698745725.8399546,11932.0
1698745725.8605309,11941.0
1698745725.8811069,11944.0
1698745725.9016829,11946.0
1698745725.922259,11943.0
1698745725.942835,11945.0
1698745725.9634113,11949.0
1698745725.9839876,11951.0
1698745726.0045638,11949.0
1698745726.0251398,11957.0
1698745726.0457158,11953.0
1698745726.066292,11951.0
1698745726.086868,11950.0
1698745726.1074443,11940.0
1698745726.1280205,11943.0
1698745726.1485968,11941.0
1698745726.1691725,11938.0
1698745726.1897488,11936.0
1698745726.210325,11944.0
1698745726.2309012,11945.0
1698745726.2514772,11948.0
1698745726.2720537,11954.0
1698745726.2926297,11955.0
1698745726.3132055,11947.0
1698745726.3337815,11958.0
1698745726.354358,11955.0
1698745726.3749342,11956.0
1698745726.3955104,11955.0
1698745726.4160864,11960.0
1698745726.4366627,11975.0
1698745726.4572382,11966.0
1698745726.4778147,11977.0
1698745726.498391,11976.0
1698745726.5189672,11975.0
1698745726.5395432,11981.0
1698745726.5601194,11995.0
1698745726.5806956,11990.0
1698745726.6012714,11994.0
1698745726.6218476,11993.0
1698745726.6424239,11990.0
1698745726.683576,11987.0
1698745726.7041523,11986.0
1698745726.7247286,11989.0
1698745726.7453043,11986.0
1698745726.7658806,11987.0
1698745726.7864568,11983.0
1698745726.807033,11982.0
1698745726.827609,11982.0
1698745726.8481853,11981.0
1698745726.8687618,11979.0
1698745726.8893373,11980.0
1698745726.9099135,11977.0
1698745726.9304895,11968.0
1698745726.951066,11976.0
1698745726.971642,11971.0
1698745726.9922185,11966.0
1698745727.0127945,11968.0
1698745727.0333703,11974.0
1698745727.0539463,11970.0
1698745727.0745227,11977.0
1698745727.095099,11977.0
1698745727.115675,11980.0
1698745727.1362512,11976.0
1698745727.1568274,11982.0
1698745727.1774032,11976.0
1698745727.1979795,11976.0
1698745727.2185557,11967.0
1698745727.239132,11974.0
1698745727.259708,11977.0
1698745727.2802842,11993.0
1698745727.3008602,12001.0
1698745727.3214362,12014.0
1698745727.3420124,12033.0
1698745727.3625886,12036.0
1698745727.383165,12050.0
1698745727.403741,12061.0
1698745727.4243171,12081.0
1698745727.4448931,12087.0
1698745727.4654691,12104.0
1698745727.4860454,12104.0
1698745727.5066216,12107.0
1698745727.5271978,12109.0
1698745727.5477738,12113.0
1698745727.56835,12120.0
1698745727.588926,12117.0
1698745727.6095023,12119.0
1698745727.6300783,12127.0
1698745727.6506543,12123.0
1698745727.6712308,12121.0
1698745727.6918068,12122.0
1698745727.712383,12130.0
1698745727.732959,12124.0
1698745727.7535353,12128.0
1698745727.774111,12134.0
1698745727.7946875,12154.0
1698745727.8152637,12155.0
1698745727.8358397,12182.0
1698745727.856416,12193.0
1698745727.876992,12194.0
1698745727.8975682,12195.0
1698745727.9181442,12198.0
1698745727.9387205,12194.0
1698745727.9592967,12193.0
1698745727.9798727,12191.0
1698745728.000449,12211.0
1698745728.021025,12224.0
1698745728.0416012,12269.0
1698745728.0621772,12294.0
1698745728.0827534,12309.0
1698745728.1033297,12306.0
1698745728.1239057,12303.0
1698745728.144482,12298.0
1698745728.1650581,12284.0
1698745728.1856341,12279.0
1698745728.2062101,12264.0
1698745728.2267864,12255.0
1698745728.2473624,12243.0
1698745728.2679386,12235.0
1698745728.2885149,12223.0
1698745728.3090909,12231.0
1698745728.329667,12222.0
1698745728.350243,12221.0
1698745728.370819,12217.0
1698745728.3913956,12212.0
1698745728.4119716,12208.0
1698745728.4325476,12206.0
1698745728.4531238,12196.0
1698745728.4737,12202.0
1698745728.4942758,12208.0
1698745728.5148523,12195.0
1698745728.5354285,12186.0
1698745728.5560045,12172.0
1698745728.5765805,12168.0
1698745728.5971568,12161.0
1698745728.617733,12157.0
1698745728.638309,12161.0
1698745728.6588852,12159.0
1698745728.6794615,12172.0
1698745728.7000375,12182.0
1698745728.7206135,12191.0
1698745728.7411897,12192.0
1698745728.7617662,12197.0
1698745728.782342,12205.0
1698745728.8029182,12199.0
1698745728.8234944,12192.0
1698745728.8440707,12176.0
1698745728.8646464,12162.0
1698745728.885223,12141.0
1698745728.905799,12137.0
1698745728.926375,12125.0
1698745728.9469512,12119.0
1698745728.9675272,12096.0
1698745728.9881036,12073.0
1698745729.0086794,12064.0
1698745729.0292556,12051.0
1698745729.0498319,12048.0
1698745729.0704079,12045.0
1698745729.0909839,12048.0
1698745729.1115603,12045.0
1698745729.1321366,12043.0
1698745729.1527123,12045.0
1698745729.1732886,12045.0
1698745729.1938648,12048.0
1698745729.2144408,12036.0
1698745729.235017,12045.0
1698745729.2555933,12046.0
1698745729.2761695,12048.0
1698745729.2967453,12042.0
1698745729.3173215,12042.0
1698745729.3378978,12039.0
1698745729.358474,12037.0
1698745729.37905,12034.0
1698745729.3996263,12042.0
1698745729.4202025,12036.0
1698745729.4407783,12031.0
1698745729.4613545,12028.0
1698745729.481931,12029.0
1698745729.5025067,12017.0
1698745729.523083,12025.0
1698745729.5436592,12019.0
1698745729.5642352,12019.0
1698745729.5848112,12001.0
1698745729.6053877,12013.0
1698745729.6259637,12017.0
1698745729.6465397,12011.0
1698745729.667116,12013.0
1698745729.687692,12010.0
1698745729.7082682,12028.0
1698745729.7288442,12027.0
1698745729.7494204,12032.0
1698745729.7699966,12033.0
1698745729.7905726,12051.0
1698745729.811149,12040.0
1698745729.8317251,12047.0
1698745729.8523011,12047.0
1698745729.8728771,12052.0
1698745729.8934534,12048.0
1698745729.9140296,12054.0
1698745729.9346056,12057.0
1698745729.9551818,12056.0
1698745729.975758,12063.0
1698745729.996334,12054.0
1698745730.01691,12067.0
1698745730.0374863,12066.0
1698745730.0580626,12069.0
1698745730.078639,12071.0
1698745730.0992148,12072.0
1698745730.119791,12075.0
1698745730.140367,12083.0
1698745730.160943,12077.0
1698745730.1815193,12081.0
1698745730.2020957,12092.0
1698745730.2226717,12085.0
1698745730.2432477,12080.0
1698745730.263824,12079.0
1698745730.2844,12076.0
1698745730.304976,12078.0
1698745730.3255522,12068.0
1698745730.3461285,12060.0
1698745730.3667047,12062.0
1698745730.3872807,12058.0
1698745730.407857,12081.0
1698745730.428433,12059.0
1698745730.449009,12062.0
1698745730.4695852,12066.0
1698745730.4901614,12066.0
1698745730.5107377,12071.0
1698745730.5313137,12060.0
1698745730.55189,12067.0
1698745730.572466,12070.0
1698745730.593042,12071.0
1698745730.6136181,12067.0
1698745730.6341944,12071.0
1698745730.6547706,12072.0
1698745730.6753466,12066.0
1698745730.6959226,12067.0
1698745730.7164989,12067.0
1698745730.7370749,12068.0
1698745730.757651,12068.0
1698745730.7782273,12076.0
1698745730.7988038,12062.0
1698745730.8193796,12070.0
1698745730.8399556,12064.0
1698745730.8605316,12060.0
1698745730.8811078,12057.0
1698745730.901684,12060.0
1698745730.9222605,12049.0
1698745730.9428365,12052.0
1698745730.9634125,12044.0
1698745730.9839883,12041.0
1698745731.0045648,12037.0
1698745731.0251408,12037.0
1698745731.045717,12013.0
1698745731.0662932,12030.0
1698745731.0868695,12022.0
1698745731.1074455,12016.0
1698745731.1280215,12014.0
1698745731.1485977,12014.0
1698745731.1691737,12014.0
1698745731.18975,12009.0
1698745731.2103262,12010.0
1698745731.2309024,12012.0
1698745731.2514784,12015.0
1698745731.2720544,12004.0
1698745731.2926307,12009.0
1698745731.3132067,12004.0
1698745731.333783,11994.0
1698745731.3543591,12008.0
1698745731.3749354,12005.0
1698745731.3955116,11999.0
1698745731.4160874,11996.0
1698745731.4366636,11982.0
1698745731.4572394,11995.0
1698745731.4778159,11986.0
1698745731.498392,11990.0
1698745731.5189686,11977.0
1698745731.5395443,11983.0
1698745731.5601203,11980.0
1698745731.5806963,11980.0
1698745731.6012728,11972.0
1698745731.6218488,11970.0
1698745731.642425,11973.0
1698745731.6630013,11967.0
1698745731.6835773,11964.0
1698745731.7041533,11951.0
1698745731.7247295,11952.0
1698745731.7453058,11950.0
1698745731.7658818,11942.0
1698745731.786458,11942.0
1698745731.8070343,11928.0
1698745731.82761,11937.0
1698745731.8481863,11930.0
1698745731.8687625,11932.0
1698745731.8893387,11931.0
1698745731.9099147,11941.0
1698745731.930491,11927.0
1698745731.9510672,11930.0
1698745731.971643,11934.0
1698745731.9922192,11964.0
1698745732.0127954,11985.0
1698745732.0333717,12011.0
1698745732.0539477,12021.0
1698745732.074524,12036.0
1698745732.0951002,12032.0
1698745732.115676,12037.0
1698745732.1362522,12035.0
1698745732.1568284,12035.0
1698745732.1774044,12051.0
1698745732.1979806,12045.0
1698745732.218557,12052.0
1698745732.2391331,12044.0
1698745732.259709,12049.0
1698745732.2802851,12029.0
1698745732.3008611,12035.0
1698745732.3214376,12028.0
1698745732.3420136,12023.0
1698745732.3625898,12020.0
1698745732.383166,12033.0
1698745732.4037418,12023.0
1698745732.424318,12031.0
1698745732.4448943,12048.0
1698745732.4654706,12060.0
1698745732.4860466,12073.0
1698745732.5066228,12088.0
1698745732.527199,12100.0
1698745732.5477748,12121.0
1698745732.568351,12113.0
1698745732.5889273,12119.0
1698745732.6095035,12111.0
1698745732.6300795,12114.0
1698745732.6506557,12107.0
1698745732.671232,12102.0
1698745732.6918082,12098.0
1698745732.712384,12091.0
1698745732.7329602,12093.0
1698745732.7535365,12094.0
1698745732.7741122,12086.0
1698745732.7946887,12092.0
1698745732.815265,12090.0
1698745732.8358407,12086.0
1698745732.856417,12093.0
1698745732.8769932,12088.0
1698745732.8975692,12084.0
1698745732.9181454,12087.0
1698745732.9387217,12081.0
1698745732.9592977,12103.0
1698745732.979874,12088.0
1698745733.00045,12081.0
1698745733.021026,12078.0
1698745733.0416024,12083.0
1698745733.0621784,12079.0
1698745733.0827546,12091.0
1698745733.1033306,12112.0
1698745733.1239069,12156.0
1698745733.1444829,12178.0
1698745733.165059,12210.0
1698745733.1856353,12251.0
1698745733.2062113,12299.0
1698745733.2267876,12355.0
1698745733.2473636,12394.0
1698745733.2679398,12456.0
1698745733.288516,12504.0
1698745733.309092,12541.0
1698745733.3296683,12578.0
1698745733.3502443,12614.0
1698745733.3708205,12655.0
1698745733.3913965,12681.0
1698745733.411973,12702.0
1698745733.4325488,12760.0
1698745733.453125,12791.0
1698745733.4737012,12814.0
1698745733.494277,12770.0
1698745733.5148535,12774.0
1698745733.5354295,12765.0
1698745733.5560057,12760.0
1698745733.5765817,12754.0
1698745733.597158,12752.0
1698745733.617734,12743.0
1698745733.6383102,12751.0
1698745733.6588864,12743.0
1698745733.6794624,12751.0
1698745733.7000387,12745.0
1698745733.7206147,12750.0
1698745733.741191,12760.0
1698745733.7617671,12774.0
1698745733.7823431,12796.0
1698745733.8029194,12792.0
1698745733.8234954,12802.0
1698745733.8440716,12812.0
1698745733.8646476,12834.0
1698745733.885224,12861.0
1698745733.9058,12855.0
1698745733.926376,12866.0
1698745733.9469523,12882.0
1698745733.9675283,12886.0
1698745733.9881046,12883.0
1698745734.0086808,12893.0
1698745734.0292568,12892.0
1698745734.049833,12896.0
1698745734.0704093,12895.0
1698745734.090985,12897.0
1698745734.1115613,12898.0
1698745734.1321378,12896.0
1698745734.1527135,12915.0
1698745734.1732898,12901.0
1698745734.193866,12907.0
1698745734.2144418,12906.0
1698745734.235018,12929.0
1698745734.2555943,12956.0
1698745734.2761705,12988.0
1698745734.2967465,13020.0
1698745734.3173227,13062.0
1698745734.337899,13102.0
1698745734.3584752,13139.0
1698745734.379051,13159.0
1698745734.3996272,13186.0
1698745734.4202034,13198.0
1698745734.4407794,13206.0
1698745734.4613557,13209.0
1698745734.481932,13208.0
1698745734.5025082,13218.0
1698745734.523084,13220.0
1698745734.5436602,13242.0
1698745734.5642364,13247.0
1698745734.5848124,13260.0
1698745734.6053889,13258.0
1698745734.6259649,13242.0
1698745734.646541,13241.0
1698745734.6671169,13227.0
1698745734.687693,13231.0
1698745734.7082694,13225.0
1698745734.7288456,13224.0
1698745734.7494216,13235.0
1698745734.7699978,13242.0
1698745734.790574,13247.0
1698745734.8111498,13263.0
1698745734.831726,13284.0
1698745734.8523023,13295.0
1698745734.8728783,13302.0
1698745734.8934546,13306.0
1698745734.9140308,13312.0
1698745734.934607,13316.0
1698745734.9551828,13323.0
1698745734.975759,13324.0
1698745734.9963353,13328.0
