timestamp,ppg
1698675165.0200083,12924.0
1698675165.040502,12941.0
1698675165.0609953,12960.0
1698675165.0814884,12974.0
1698675165.1019819,13007.0
1698675165.1224751,13041.0
1698675165.1429687,13080.0
1698675165.1634622,13131.0
1698675165.1839557,13191.0
1698675165.204449,13249.0
1698675165.224942,13319.0
1698675165.2454355,13385.0
1698675165.265929,13445.0
1698675165.2864223,13509.0
1698675165.3069158,13569.0
1698675165.3274093,13623.0
1698675165.3479023,13677.0
1698675165.3683958,13733.0
1698675165.388889,13790.0
1698675165.4093826,13843.0
1698675165.429876,13854.0
1698675165.4503694,13948.0
1698675165.4708629,13985.0
1698675165.491356,14034.0
1698675165.5118494,14084.0
1698675165.5323427,14120.0
1698675165.5528362,14119.0
1698675165.5733297,14195.0
1698675165.593823,14235.0
1698675165.6143165,14268.0
1698675165.6348095,14301.0
1698675165.655303,14332.0
1698675165.6757963,14359.0
1698675165.6962898,14377.0
1698675165.7167833,14392.0
1698675165.7372766,14391.0
1698675165.7577698,14382.0
1698675165.778263,14376.0
1698675165.7987566,14376.0
1698675165.81925,14361.0
1698675165.8397434,14343.0
1698675165.860237,14330.0
1698675165.8807302,14314.0
1698675165.9012234,14300.0
1698675165.9217167,14286.0
1698675165.9422102,14272.0
1698675165.9627037,14263.0
1698675165.983197,14258.0
1698675166.0036905,14261.0
1698675166.0241835,14261.0
1698675166.044677,14264.0
1698675166.0651705,14265.0
1698675166.0856638,14266.0
1698675166.1061573,14264.0
1698675166.1266506,14264.0
1698675166.147144,14268.0
1698675166.167637,14264.0
1698675166.1881306,14263.0
1698675166.2086241,14267.0
1698675166.2291174,14269.0
1698675166.249611,14260.0
1698675166.2701042,14263.0
1698675166.2905977,14224.0
1698675166.3110907,14264.0
1698675166.3315842,14265.0
1698675166.3520777,14258.0
1698675166.372571,14260.0
1698675166.3930645,14260.0
1698675166.413558,14262.0
1698675166.434051,14258.0
1698675166.4545445,14260.0
1698675166.4750378,14215.0
1698675166.4955313,14259.0
1698675166.5160248,14255.0
1698675166.536518,14258.0
1698675166.5570116,14257.0
1698675166.5775046,14257.0
1698675166.5979981,14258.0
1698675166.6184916,14250.0
1698675166.638985,14255.0
1698675166.6594784,14257.0
1698675166.6799717,14254.0
1698675166.7004647,14254.0
1698675166.7209585,14262.0
1698675166.7414517,14263.0
1698675166.761945,14268.0
1698675166.7824385,14231.0
1698675166.8029318,14269.0
1698675166.8234253,14272.0
1698675166.8439186,14270.0
1698675166.864412,14271.0
1698675166.8849053,14275.0
1698675166.9053986,14276.0
1698675166.925892,14281.0
1698675166.9463854,14276.0
1698675166.966879,14291.0
1698675166.9873722,14299.0
1698675167.0078654,14302.0
1698675167.028359,14309.0
1698675167.0488522,14315.0
1698675167.0693457,14329.0
1698675167.0898392,14344.0
1698675167.1103325,14371.0
1698675167.1308258,14408.0
1698675167.151319,14465.0
1698675167.1718125,14525.0
1698675167.1923058,14566.0
1698675167.2127993,14599.0
1698675167.2332928,14641.0
1698675167.2537858,14677.0
1698675167.2742794,14697.0
1698675167.2947726,14725.0
1698675167.3152661,14750.0
1698675167.3357596,14779.0
1698675167.356253,14804.0
1698675167.3767462,14830.0
1698675167.3972394,14854.0
1698675167.417733,14878.0
1698675167.4382262,14896.0
1698675167.4587195,14922.0
1698675167.4792132,14940.0
1698675167.4997063,14954.0
1698675167.5201998,14973.0
1698675167.540693,14989.0
1698675167.5611863,15010.0
1698675167.5816798,15024.0
1698675167.602173,15037.0
1698675167.6226668,15044.0
1698675167.64316,15062.0
1698675167.6636534,15074.0
1698675167.6841466,15085.0
1698675167.70464,15087.0
1698675167.7251337,15058.0
1698675167.745627,15112.0
1698675167.7661204,15119.0
1698675167.7866135,15131.0
1698675167.807107,15142.0
1698675167.8276002,15149.0
1698675167.8480937,15113.0
1698675167.8685873,15169.0
1698675167.8890805,15180.0
1698675167.909574,15176.0
1698675167.930067,15185.0
1698675167.9505603,15190.0
1698675167.9710538,15198.0
1698675167.9915473,15201.0
1698675168.0120409,15209.0
1698675168.0325341,15216.0
1698675168.0530272,15180.0
1698675168.0735207,15226.0
1698675168.0940142,15231.0
1698675168.1145077,15241.0
1698675168.135001,15244.0
1698675168.1554945,15250.0
1698675168.1759877,15259.0
1698675168.196481,15263.0
1698675168.2169743,15261.0
1698675168.2374678,15270.0
1698675168.2579613,15275.0
1698675168.2784545,15282.0
1698675168.298948,15293.0
1698675168.3194413,15291.0
1698675168.3399346,15296.0
1698675168.360428,15303.0
1698675168.3809214,15306.0
1698675168.4014149,15313.0
1698675168.4219081,15317.0
1698675168.4424016,15321.0
1698675168.4628947,15278.0
1698675168.4833882,15330.0
1698675168.5038817,15335.0
1698675168.524375,15333.0
1698675168.5448685,15340.0
1698675168.5653617,15343.0
1698675168.5858552,15347.0
1698675168.6063483,15351.0
1698675168.6268418,15356.0
1698675168.6473353,15363.0
1698675168.6678286,15366.0
1698675168.688322,15376.0
1698675168.7088153,15381.0
1698675168.7293086,15381.0
1698675168.749802,15380.0
1698675168.7702954,15387.0
1698675168.790789,15391.0
1698675168.8112822,15395.0
1698675168.8317757,15391.0
1698675168.852269,15401.0
1698675168.8727622,15405.0
1698675168.8932557,15414.0
1698675168.913749,15414.0
1698675168.9342425,15419.0
1698675168.9547358,15374.0
1698675168.9752293,15428.0
1698675168.995723,15430.0
1698675169.0162158,15435.0
1698675169.0367093,15439.0
1698675169.0572026,15447.0
1698675169.077696,15454.0
1698675169.0981896,15452.0
1698675169.1186829,15453.0
1698675169.1391761,15459.0
1698675169.1596694,15460.0
1698675169.180163,15460.0
1698675169.2006562,15469.0
1698675169.2211497,15468.0
1698675169.241643,15473.0
1698675169.2621365,15479.0
1698675169.2826297,15483.0
1698675169.303123,15490.0
1698675169.3236165,15491.0
1698675169.34411,15493.0
1698675169.3646033,15500.0
1698675169.3850968,15502.0
1698675169.4055898,15514.0
1698675169.4260833,15516.0
1698675169.4465768,15519.0
1698675169.46707,15522.0
1698675169.4875636,15531.0
1698675169.5080569,15535.0
1698675169.5285504,15526.0
1698675169.5490437,15532.0
1698675169.569537,15535.0
1698675169.5900304,15542.0
1698675169.6105237,15540.0
1698675169.6310172,15541.0
1698675169.6515105,15546.0
1698675169.672004,15547.0
1698675169.692497,15549.0
1698675169.7129905,15550.0
1698675169.7334838,15551.0
1698675169.7539773,15550.0
1698675169.7744708,15552.0
1698675169.794964,15515.0
1698675169.8154573,15557.0
1698675169.8359506,15564.0
1698675169.8564441,15563.0
1698675169.8769374,15562.0
1698675169.897431,15564.0
1698675169.9179244,15565.0
1698675169.9384174,15525.0
1698675169.958911,15573.0
1698675169.9794042,15577.0
1698675169.9998977,15577.0
1698675170.0203912,15539.0
1698675170.0408845,15586.0
1698675170.061378,15590.0
1698675170.081871,15593.0
1698675170.1023645,15592.0
1698675170.1228578,15599.0
1698675170.1433513,15599.0
1698675170.1638448,15601.0
1698675170.1843379,15599.0
1698675170.2048316,15605.0
1698675170.2253246,15608.0
1698675170.2458181,15614.0
1698675170.2663114,15614.0
1698675170.286805,15616.0
1698675170.3072984,15619.0
1698675170.3277915,15619.0
1698675170.3482852,15617.0
1698675170.3687782,15621.0
1698675170.3892715,15624.0
1698675170.4097652,15628.0
1698675170.4302583,15633.0
1698675170.450752,15632.0
1698675170.4712453,15640.0
1698675170.4917383,15638.0
1698675170.5122318,15644.0
1698675170.532725,15650.0
1698675170.5532188,15643.0
1698675170.573712,15649.0
1698675170.5942056,15650.0
1698675170.614699,15649.0
1698675170.635192,15644.0
1698675170.6556857,15641.0
1698675170.676179,15636.0
1698675170.6966724,15636.0
1698675170.7171657,15636.0
1698675170.7376592,15630.0
1698675170.7581522,15629.0
1698675170.7786458,15626.0
1698675170.7991393,15622.0
1698675170.8196325,15580.0
1698675170.840126,15616.0
1698675170.8606193,15607.0
1698675170.8811128,15596.0
1698675170.9016058,15590.0
1698675170.9220994,15578.0
1698675170.9425929,15574.0
1698675170.9630861,15572.0
1698675170.9835796,15563.0
1698675171.004073,15566.0
1698675171.0245664,15559.0
1698675171.0450597,15565.0
1698675171.065553,15562.0
1698675171.0860465,15552.0
1698675171.1065397,15549.0
1698675171.1270332,15538.0
1698675171.1475265,15520.0
1698675171.1680198,15502.0
1698675171.1885133,15493.0
1698675171.2090065,15491.0
1698675171.2295,15479.0
1698675171.2499933,15477.0
1698675171.2704868,15476.0
1698675171.2909803,15471.0
1698675171.3114734,15468.0
1698675171.3319669,15462.0
1698675171.3524601,15458.0
1698675171.3729537,15449.0
1698675171.393447,15439.0
1698675171.4139404,15432.0
1698675171.4344337,15428.0
1698675171.454927,15422.0
1698675171.4754205,15407.0
1698675171.4959137,15401.0
1698675171.5164073,15388.0
1698675171.5369005,15379.0
1698675171.557394,15366.0
1698675171.5778873,15363.0
1698675171.5983806,15360.0
1698675171.618874,15353.0
1698675171.6393673,15347.0
1698675171.6598608,15335.0
1698675171.6803544,15334.0
1698675171.7008476,15321.0
1698675171.721341,15318.0
1698675171.7418342,15310.0
1698675171.7623277,15308.0
1698675171.782821,15300.0
1698675171.8033144,15295.0
1698675171.8238082,15283.0
1698675171.844301,15277.0
1698675171.8647945,15266.0
1698675171.8852878,15261.0
1698675171.9057813,15251.0
1698675171.926275,15244.0
1698675171.946768,15227.0
1698675171.9672618,15211.0
1698675171.9877546,15189.0
1698675172.008248,15175.0
1698675172.0287416,15172.0
1698675172.0492349,15159.0
1698675172.0697286,15146.0
1698675172.0902216,15138.0
1698675172.110715,15129.0
1698675172.1312084,15119.0
1698675172.1517017,15100.0
1698675172.172195,15095.0
1698675172.1926885,15095.0
1698675172.213182,15095.0
1698675172.2336752,15084.0
1698675172.2541685,15084.0
1698675172.274662,15076.0
1698675172.2951553,15071.0
1698675172.3156488,15061.0
1698675172.336142,15064.0
1698675172.3566356,15056.0
1698675172.3771288,15045.0
1698675172.397622,15036.0
1698675172.4181154,15024.0
1698675172.438609,15020.0
1698675172.4591024,15008.0
1698675172.4795957,15007.0
1698675172.5000892,15001.0
1698675172.5205824,14984.0
1698675172.5410757,14974.0
1698675172.561569,14964.0
1698675172.5820625,14954.0
1698675172.602556,14940.0
1698675172.6230493,14935.0
1698675172.6435428,14920.0
1698675172.6640358,14912.0
1698675172.6845293,14901.0
1698675172.7050228,14894.0
1698675172.725516,14882.0
1698675172.7460096,14880.0
1698675172.7665029,14873.0
1698675172.7869961,14874.0
1698675172.8074894,14870.0
1698675172.827983,14869.0
1698675172.8484764,14864.0
1698675172.8689694,14852.0
1698675172.8894632,14838.0
1698675172.9099562,14828.0
1698675172.9304497,14819.0
1698675172.9509432,14805.0
1698675172.9714363,14794.0
1698675172.99193,14789.0
1698675173.012423,14782.0
1698675173.0329168,14766.0
1698675173.05341,14717.0
1698675173.0739033,14746.0
1698675173.0943968,14732.0
1698675173.1148899,14717.0
1698675173.1353836,14711.0
1698675173.1558769,14709.0
1698675173.1763704,14705.0
1698675173.1968634,14704.0
1698675173.217357,14691.0
1698675173.2378504,14683.0
1698675173.2583437,14677.0
1698675173.2788372,14665.0
1698675173.2993305,14653.0
1698675173.319824,14640.0
1698675173.3403172,14633.0
1698675173.3608103,14624.0
1698675173.381304,14611.0
1698675173.4017973,14603.0
1698675173.4222908,14592.0
1698675173.442784,14569.0
1698675173.463277,14560.0
1698675173.4837708,14550.0
1698675173.504264,14558.0
1698675173.5247576,14573.0
1698675173.545251,14582.0
1698675173.5657444,14583.0
1698675173.586238,14587.0
1698675173.606731,14579.0
1698675173.6272244,14580.0
1698675173.6477177,14572.0
1698675173.6682112,14569.0
1698675173.6887045,14570.0
1698675173.709198,14561.0
1698675173.7296915,14555.0
1698675173.7501845,14554.0
1698675173.770678,14552.0
1698675173.7911713,14548.0
1698675173.8116648,14531.0
1698675173.832158,14518.0
1698675173.8526516,14510.0
1698675173.8731449,14500.0
1698675173.8936381,14481.0
1698675173.9141316,14475.0
1698675173.934625,14456.0
1698675173.9551184,14445.0
1698675173.975612,14390.0
1698675173.9961052,14421.0
1698675174.0165985,14417.0
1698675174.0370917,14397.0
1698675174.0575852,14352.0
1698675174.0780785,14386.0
1698675174.098572,14376.0
1698675174.1190655,14375.0
1698675174.1395586,14375.0
1698675174.160052,14373.0
1698675174.1805453,14372.0
1698675174.2010388,14373.0
1698675174.2215323,14377.0
1698675174.2420256,14378.0
1698675174.2625191,14381.0
1698675174.2830122,14383.0
1698675174.3035057,14385.0
1698675174.323999,14382.0
1698675174.3444924,14377.0
1698675174.364986,14370.0
1698675174.3854792,14371.0
1698675174.405973,14367.0
1698675174.4264657,14363.0
1698675174.4469593,14352.0
1698675174.4674525,14344.0
1698675174.487946,14328.0
1698675174.5084398,14307.0
1698675174.5289328,14282.0
1698675174.549426,14259.0
1698675174.5699193,14246.0
1698675174.5904129,14238.0
1698675174.6109064,14241.0
1698675174.6313996,14236.0
1698675174.6518931,14242.0
1698675174.6723864,14254.0
1698675174.6928797,14254.0
1698675174.713373,14255.0
1698675174.7338665,14254.0
1698675174.7543602,14257.0
1698675174.7748532,14257.0
1698675174.7953467,14251.0
1698675174.8158398,14246.0
1698675174.8363333,14229.0
1698675174.856827,14222.0
1698675174.87732,14210.0
1698675174.8978138,14204.0
1698675174.9183068,14200.0
1698675174.9388003,14180.0
1698675174.9592936,14174.0
1698675174.9797869,14162.0
1698675175.0002806,14108.0
1698675175.0207736,14144.0
1698675175.0412672,14138.0
1698675175.0617604,14141.0
1698675175.082254,14137.0
1698675175.102747,14137.0
1698675175.1232405,14137.0
1698675175.143734,14135.0
1698675175.1642272,14138.0
1698675175.1847208,14142.0
1698675175.205214,14144.0
1698675175.2257073,14147.0
1698675175.2462008,14144.0
1698675175.266694,14144.0
1698675175.2871876,14139.0
1698675175.3076808,14139.0
1698675175.3281744,14137.0
1698675175.3486674,14133.0
1698675175.369161,14131.0
1698675175.3896544,14123.0
1698675175.4101477,14122.0
1698675175.4306412,14108.0
1698675175.4511344,14091.0
1698675175.471628,14075.0
1698675175.492121,14062.0
1698675175.5126145,14064.0
1698675175.533108,14033.0
1698675175.5536013,14086.0
1698675175.5740948,14099.0
1698675175.5945878,14109.0
1698675175.6150815,14116.0
1698675175.6355748,14123.0
1698675175.656068,14119.0
1698675175.6765616,14120.0
1698675175.6970549,14124.0
1698675175.7175484,14117.0
1698675175.7380414,14109.0
1698675175.7585351,14087.0
1698675175.7790284,14065.0
1698675175.7995214,14048.0
1698675175.8200152,13996.0
1698675175.8405082,14022.0
1698675175.861002,14013.0
1698675175.8814955,14005.0
1698675175.9019883,13991.0
1698675175.922482,13974.0
1698675175.942975,13963.0
1698675175.9634688,13913.0
1698675175.983962,13952.0
1698675176.0044556,13956.0
1698675176.024949,13963.0
1698675176.0454419,13967.0
1698675176.0659356,13971.0
1698675176.0864289,13971.0
1698675176.1069224,13975.0
1698675176.1274157,13987.0
1698675176.1479092,13994.0
1698675176.1684024,13998.0
1698675176.1888957,14001.0
1698675176.2093892,14006.0
1698675176.2298825,14003.0
1698675176.250376,14010.0
1698675176.2708695,14008.0
1698675176.2913628,14005.0
1698675176.311856,14002.0
1698675176.3323493,13995.0
1698675176.3528428,13994.0
1698675176.373336,13985.0
1698675176.3938296,13975.0
1698675176.414323,13965.0
1698675176.4348164,13949.0
1698675176.4553096,13947.0
1698675176.475803,13947.0
1698675176.4962964,13947.0
1698675176.51679,13957.0
1698675176.5372832,13961.0
1698675176.5577767,13965.0
1698675176.5782697,13971.0
1698675176.5987632,13967.0
1698675176.6192565,13967.0
1698675176.63975,13965.0
1698675176.6602435,13960.0
1698675176.6807368,13952.0
1698675176.7012303,13942.0
1698675176.7217233,13937.0
1698675176.7422168,13930.0
1698675176.76271,13926.0
1698675176.7832036,13916.0
1698675176.803697,13911.0
1698675176.8241904,13902.0
1698675176.8446836,13858.0
1698675176.865177,13891.0
1698675176.8856704,13884.0
1698675176.906164,13874.0
1698675176.9266572,13872.0
1698675176.9471507,13871.0
1698675176.967644,13881.0
1698675176.9881372,13888.0
1698675177.0086305,13902.0
1698675177.029124,13911.0
1698675177.0496175,13911.0
1698675177.0701108,13914.0
1698675177.0906043,13922.0
1698675177.1110976,13926.0
1698675177.1315908,13927.0
1698675177.152084,13926.0
1698675177.1725776,13927.0
1698675177.1930711,13923.0
1698675177.2135644,13923.0
1698675177.2340581,13923.0
1698675177.254551,13925.0
1698675177.2750444,13924.0
1698675177.295538,13913.0
1698675177.3160312,13908.0
1698675177.336525,13905.0
1698675177.357018,13889.0
1698675177.3775117,13881.0
1698675177.3980045,13878.0
1698675177.418498,13875.0
1698675177.4389918,13878.0
1698675177.4594848,13886.0
1698675177.4799786,13898.0
1698675177.5004716,13906.0
1698675177.5209649,13911.0
1698675177.5414586,13912.0
1698675177.5619516,13915.0
1698675177.5824451,13917.0
1698675177.6029384,13912.0
1698675177.623432,13911.0
1698675177.6439252,13900.0
1698675177.6644185,13898.0
1698675177.6849122,13896.0
1698675177.7054052,13877.0
1698675177.7258987,13868.0
1698675177.746392,13861.0
1698675177.7668855,13851.0
1698675177.7873788,13841.0
1698675177.807872,13830.0
1698675177.8283656,13814.0
1698675177.8488588,13800.0
1698675177.8693523,13792.0
1698675177.8898456,13784.0
1698675177.910339,13786.0
1698675177.9308326,13803.0
1698675177.9513257,13801.0
1698675177.9718192,13772.0
1698675177.9923124,13821.0
1698675178.012806,13831.0
1698675178.0332992,13837.0
1698675178.0537927,13843.0
1698675178.074286,13847.0
1698675178.0947793,13848.0
1698675178.1152728,13851.0
1698675178.135766,13852.0
1698675178.1562595,13845.0
1698675178.176753,13841.0
1698675178.197246,13842.0
1698675178.2177396,13837.0
1698675178.2382329,13830.0
1698675178.2587264,13830.0
1698675178.2792194,13834.0
1698675178.2997131,13828.0
1698675178.3202064,13821.0
1698675178.3406997,13815.0
1698675178.3611932,13819.0
1698675178.3816862,13831.0
1698675178.40218,13835.0
1698675178.422673,13847.0
1698675178.4431667,13844.0
1698675178.4636602,13847.0
1698675178.4841533,13798.0
1698675178.5046468,13838.0
1698675178.5251398,13829.0
1698675178.5456336,13824.0
1698675178.566127,13822.0
1698675178.5866203,13809.0
1698675178.6071136,13806.0
1698675178.6276069,13801.0
1698675178.6481004,13791.0
1698675178.6685936,13782.0
1698675178.6890872,13786.0
1698675178.7095807,13777.0
1698675178.730074,13764.0
1698675178.7505672,13760.0
1698675178.7710602,13757.0
1698675178.791554,13744.0
1698675178.8120475,13734.0
1698675178.8325408,13721.0
1698675178.8530343,13681.0
1698675178.873527,13732.0
1698675178.8940208,13740.0
1698675178.914514,13759.0
1698675178.9350076,13775.0
1698675178.955501,13779.0
1698675178.9759943,13790.0
1698675178.9964879,13804.0
1698675179.016981,13806.0
1698675179.0374744,13819.0
1698675179.0579677,13820.0
1698675179.0784612,13821.0
1698675179.0989547,13823.0
1698675179.119448,13824.0
1698675179.1399415,13822.0
1698675179.1604345,13825.0
1698675179.180928,13817.0
1698675179.2014215,13806.0
1698675179.2219148,13793.0
1698675179.2424083,13786.0
1698675179.2629015,13764.0
1698675179.2833948,13756.0
1698675179.303888,13745.0
1698675179.3243816,13751.0
1698675179.344875,13764.0
1698675179.3653684,13772.0
1698675179.3858619,13740.0
1698675179.4063551,13782.0
1698675179.4268484,13774.0
1698675179.4473417,13767.0
1698675179.4678352,13763.0
1698675179.4883287,13764.0
1698675179.508822,13751.0
1698675179.5293155,13751.0
1698675179.5498085,13737.0
1698675179.570302,13728.0
1698675179.5907955,13725.0
1698675179.6112888,13720.0
1698675179.6317823,13720.0
1698675179.6522756,13717.0
1698675179.672769,13711.0
1698675179.693262,13704.0
1698675179.7137556,13690.0
1698675179.734249,13687.0
1698675179.7547424,13676.0
1698675179.775236,13673.0
1698675179.7957292,13675.0
1698675179.816223,13693.0
1698675179.836716,13703.0
1698675179.8572092,13718.0
1698675179.8777027,13724.0
1698675179.898196,13733.0
1698675179.9186897,13740.0
1698675179.9391828,13740.0
1698675179.959676,13748.0
1698675179.9801695,13706.0
1698675180.0006628,13746.0
1698675180.0211563,13708.0
1698675180.0416496,13742.0
1698675180.062143,13736.0
1698675180.0826364,13741.0
1698675180.1031296,13743.0
1698675180.1236231,13738.0
1698675180.1441164,13729.0
1698675180.1646101,13713.0
1698675180.1851032,13701.0
1698675180.2055967,13689.0
1698675180.22609,13679.0
1698675180.2465832,13675.0
1698675180.267077,13685.0
1698675180.28757,13701.0
1698675180.3080637,13711.0
1698675180.3285568,13720.0
1698675180.3490503,13719.0
1698675180.3695438,13716.0
1698675180.3900368,13711.0
1698675180.4105306,13715.0
1698675180.4310236,13704.0
1698675180.451517,13693.0
1698675180.4720106,13694.0
1698675180.492504,13680.0
1698675180.5129972,13677.0
1698675180.5334904,13665.0
1698675180.553984,13656.0
1698675180.5744772,13651.0
1698675180.5949707,13639.0
1698675180.6154642,13638.0
1698675180.6359572,13624.0
1698675180.6564507,13615.0
1698675180.676944,13612.0
1698675180.6974375,13599.0
1698675180.7179308,13598.0
1698675180.7384243,13606.0
1698675180.7589176,13622.0
1698675180.7794108,13634.0
1698675180.7999043,13650.0
1698675180.8203976,13654.0
1698675180.8408911,13658.0
1698675180.8613846,13664.0
1698675180.881878,13674.0
1698675180.9023712,13675.0
1698675180.9228644,13675.0
1698675180.943358,13684.0
1698675180.9638512,13677.0
1698675180.9843447,13676.0
1698675181.004838,13675.0
1698675181.0253315,13671.0
1698675181.0458248,13667.0
1698675181.066318,13659.0
1698675181.0868115,13650.0
1698675181.107305,13647.0
1698675181.1277983,13630.0
1698675181.1482916,13615.0
1698675181.168785,13604.0
1698675181.1892784,13599.0
1698675181.2097714,13565.0
1698675181.2302651,13625.0
1698675181.2507584,13627.0
1698675181.271252,13637.0
1698675181.2917454,13602.0
1698675181.3122382,13640.0
1698675181.332732,13637.0
1698675181.353225,13641.0
1698675181.3737187,13642.0
1698675181.3942122,13630.0
1698675181.4147055,13627.0
1698675181.435199,13617.0
1698675181.4556918,13613.0
1698675181.4761856,13604.0
1698675181.496679,13601.0
1698675181.5171723,13595.0
1698675181.5376658,13548.0
1698675181.558159,13577.0
1698675181.5786524,13565.0
1698675181.5991457,13553.0
1698675181.6196392,13546.0
1698675181.6401327,13532.0
1698675181.660626,13523.0
1698675181.6811194,13525.0
1698675181.7016127,13521.0
1698675181.722106,13525.0
1698675181.7425992,13535.0
1698675181.7630928,13539.0
1698675181.7835863,13550.0
1698675181.8040795,13553.0
1698675181.824573,13570.0
1698675181.8450663,13576.0
1698675181.8655596,13583.0
1698675181.886053,13593.0
1698675181.9065464,13589.0
1698675181.9270399,13552.0
1698675181.9475331,13591.0
1698675181.9680266,13590.0
1698675181.9885197,13585.0
1698675182.0090132,13582.0
1698675182.0295067,13570.0
1698675182.0704935,13552.0
1698675182.0909867,13502.0
1698675182.1114802,13530.0
1698675182.1319735,13523.0
1698675182.1524668,13508.0
1698675182.1729603,13501.0
1698675182.1934536,13495.0
1698675182.213947,13462.0
1698675182.2344403,13528.0
1698675182.2549336,13542.0
1698675182.275427,13552.0
1698675182.2959204,13562.0
1698675182.3164139,13568.0
1698675182.3369071,13568.0
1698675182.3574007,13559.0
1698675182.377894,13546.0
1698675182.3983872,13547.0
1698675182.4188807,13533.0
1698675182.439374,13526.0
1698675182.4598675,13514.0
1698675182.4803607,13506.0
1698675182.5008543,13464.0
1698675182.5213478,13506.0
1698675182.5418408,13499.0
1698675182.5623343,13491.0
1698675182.5828276,13484.0
1698675182.603321,13476.0
1698675182.6238143,13474.0
1698675182.644308,13472.0
1698675182.6648011,13469.0
1698675182.6852944,13470.0
1698675182.705788,13479.0
1698675182.7262812,13485.0
1698675182.746775,13485.0
1698675182.7672682,13489.0
1698675182.7877617,13495.0
1698675182.8082547,13500.0
1698675182.828748,13497.0
1698675182.8492417,13499.0
1698675182.8697348,13506.0
1698675182.8902285,13502.0
1698675182.9107218,13499.0
1698675182.9312148,13495.0
1698675182.9517086,13489.0
1698675182.9722016,13477.0
1698675182.992695,13438.0
1698675183.0131884,13473.0
1698675183.0336819,13463.0
1698675183.0541754,13446.0
1698675183.0746684,13436.0
1698675183.0951622,13426.0
1698675183.1156552,13420.0
1698675183.1361487,13420.0
1698675183.1566422,13423.0
1698675183.1771355,13423.0
1698675183.197629,13435.0
1698675183.218122,13453.0
1698675183.2386155,13468.0
1698675183.2591088,13478.0
1698675183.2796023,13483.0
1698675183.3000958,13485.0
1698675183.320589,13491.0
1698675183.3410826,13490.0
1698675183.3615756,13483.0
1698675183.382069,13476.0
1698675183.4025626,13472.0
1698675183.423056,13454.0
1698675183.4435494,13445.0
1698675183.4640427,13435.0
1698675183.484536,13424.0
1698675183.5050292,13417.0
1698675183.5255227,13420.0
1698675183.5460162,13426.0
1698675183.5665095,13419.0
1698675183.587003,13412.0
1698675183.607496,13412.0
1698675183.6279895,13362.0
1698675183.6484828,13403.0
1698675183.6689763,13397.0
1698675183.6894696,13395.0
1698675183.709963,13354.0
1698675183.7304564,13391.0
1698675183.7509496,13391.0
1698675183.7714431,13391.0
1698675183.7919364,13388.0
1698675183.81243,13385.0
1698675183.8329232,13384.0
1698675183.8534167,13384.0
1698675183.8739102,13376.0
1698675183.8944032,13373.0
1698675183.9148967,13367.0
1698675183.93539,13365.0
1698675183.9558835,13364.0
1698675183.976377,13355.0
1698675183.9968703,13312.0
1698675184.0173635,13347.0
1698675184.0378568,13349.0
1698675184.0583503,13338.0
1698675184.0788438,13334.0
1698675184.099337,13334.0
1698675184.1198306,13343.0
1698675184.1403239,13349.0
1698675184.1608171,13352.0
1698675184.1813104,13341.0
1698675184.201804,13323.0
1698675184.2222974,13320.0
1698675184.2427907,13303.0
1698675184.2632842,13293.0
1698675184.283777,13287.0
1698675184.3042707,13276.0
1698675184.3247643,13267.0
1698675184.3452575,13257.0
1698675184.365751,13247.0
1698675184.3862443,13242.0
1698675184.4067378,13241.0
1698675184.427231,13232.0
1698675184.4477243,13227.0
1698675184.4682178,13232.0
1698675184.488711,13226.0
1698675184.5092046,13228.0
1698675184.529698,13227.0
1698675184.5501914,13218.0
1698675184.5706847,13215.0
1698675184.591178,13211.0
1698675184.6116714,13208.0
1698675184.6321647,13210.0
1698675184.6526582,13212.0
1698675184.6731515,13219.0
1698675184.6936448,13226.0
1698675184.7141383,13234.0
1698675184.7346315,13238.0
1698675184.755125,13247.0
1698675184.7756183,13246.0
1698675184.7961118,13203.0
1698675184.8166053,13243.0
1698675184.8370984,13201.0
1698675184.8575919,13204.0
1698675184.8780851,13240.0
1698675184.8985786,13242.0
1698675184.919072,13242.0
1698675184.9395654,13243.0
1698675184.9600587,13238.0
1698675184.980552,13250.0
1698675185.0010455,13241.0
1698675185.0215387,13245.0
1698675185.0420322,13240.0
1698675185.0625257,13236.0
1698675185.083019,13235.0
1698675185.1035123,13236.0
1698675185.1240056,13232.0
1698675185.144499,13229.0
1698675185.1649923,13231.0
1698675185.1854858,13232.0
1698675185.2059793,13241.0
1698675185.2264729,13231.0
1698675185.246966,13213.0
1698675185.2674592,13209.0
1698675185.2879527,13205.0
1698675185.308446,13202.0
1698675185.3289397,13201.0
1698675185.349433,13207.0
1698675185.369926,13216.0
1698675185.3904195,13219.0
1698675185.4109128,13219.0
1698675185.4314063,13229.0
1698675185.4518998,13231.0
1698675185.472393,13233.0
1698675185.4928865,13238.0
1698675185.5133796,13242.0
1698675185.533873,13250.0
1698675185.5543664,13248.0
1698675185.57486,13249.0
1698675185.5953534,13245.0
1698675185.6158466,13232.0
1698675185.63634,13230.0
1698675185.6568332,13225.0
1698675185.677327,13219.0
1698675185.6978202,13213.0
1698675185.7183137,13205.0
1698675185.738807,13213.0
1698675185.7593002,13212.0
1698675185.7797937,13210.0
1698675185.8002868,13215.0
1698675185.8207805,13217.0
1698675185.8412738,13230.0
1698675185.861767,13232.0
1698675185.8822606,13240.0
1698675185.9027538,13256.0
1698675185.923247,13264.0
1698675185.9437404,13268.0
1698675185.9642339,13271.0
1698675185.9847274,13277.0
1698675186.0052207,13239.0
1698675186.0257142,13282.0
1698675186.0462072,13285.0
1698675186.0667007,13293.0
1698675186.0871942,13253.0
1698675186.1076875,13285.0
1698675186.128181,13280.0
1698675186.1486742,13283.0
1698675186.1691675,13279.0
1698675186.1896608,13281.0
1698675186.2101543,13283.0
1698675186.2306478,13281.0
1698675186.251141,13274.0
1698675186.2716346,13266.0
1698675186.2921278,13254.0
1698675186.312621,13243.0
1698675186.3331144,13234.0
1698675186.353608,13228.0
1698675186.3741014,13226.0
1698675186.3945947,13229.0
1698675186.415088,13238.0
1698675186.4355814,13249.0
1698675186.4560747,13252.0
1698675186.4765682,13257.0
1698675186.4970615,13259.0
1698675186.517555,13263.0
1698675186.5380483,13258.0
1698675186.5585415,13261.0
1698675186.579035,13269.0
1698675186.5995283,13273.0
1698675186.6200216,13273.0
1698675186.640515,13275.0
1698675186.6610084,13264.0
1698675186.6815019,13262.0
1698675186.7019954,13250.0
1698675186.7224882,13241.0
1698675186.742982,13235.0
1698675186.7634752,13232.0
1698675186.7839687,13222.0
1698675186.8044622,13225.0
1698675186.8249555,13229.0
1698675186.845449,13238.0
1698675186.865942,13247.0
1698675186.8864355,13251.0
1698675186.906929,13257.0
1698675186.9274223,13264.0
1698675186.9479158,13272.0
1698675186.968409,13278.0
1698675186.9889023,13250.0
1698675187.0093958,13289.0
1698675187.029889,13294.0
1698675187.0503826,13258.0
1698675187.070876,13297.0
1698675187.0913694,13294.0
1698675187.111863,13293.0
1698675187.132356,13286.0
1698675187.1528494,13280.0
1698675187.1733427,13279.0
1698675187.1938362,13276.0
1698675187.2143295,13268.0
1698675187.234823,13272.0
1698675187.2553165,13273.0
1698675187.2758095,13273.0
1698675187.296303,13264.0
1698675187.3167963,13259.0
1698675187.3372898,13250.0
1698675187.3577833,13244.0
1698675187.3782766,13233.0
1698675187.3987699,13223.0
1698675187.4192631,13191.0
1698675187.4397566,13250.0
1698675187.46025,13264.0
1698675187.4807434,13278.0
1698675187.501237,13300.0
1698675187.5217302,13314.0
1698675187.5422235,13313.0
1698675187.5627167,13300.0
1698675187.5832102,13304.0
1698675187.6037035,13303.0
1698675187.624197,13291.0
1698675187.6446905,13290.0
1698675187.6651835,13293.0
1698675187.685677,13285.0
1698675187.7061703,13205.0
1698675187.7266638,13276.0
1698675187.7471573,13264.0
1698675187.7676506,13262.0
1698675187.788144,13256.0
1698675187.8086371,13250.0
1698675187.8291306,13206.0
1698675187.849624,13242.0
1698675187.8701174,13246.0
1698675187.890611,13249.0
1698675187.9111042,13269.0
1698675187.9315977,13282.0
1698675187.9520907,13294.0
1698675187.9725842,13254.0
1698675187.9930778,13299.0
1698675188.013571,13305.0
1698675188.0340645,13311.0
1698675188.054558,13307.0
1698675188.075051,13310.0
1698675188.0955443,13312.0
1698675188.1160378,13326.0
1698675188.1365314,13337.0
1698675188.1570249,13341.0
1698675188.1775181,13347.0
1698675188.1980116,13341.0
1698675188.2185047,13335.0
1698675188.238998,13323.0
1698675188.2594917,13322.0
1698675188.279985,13315.0
1698675188.3004785,13301.0
1698675188.3209717,13305.0
1698675188.3414648,13317.0
1698675188.3619585,13329.0
1698675188.3824518,13349.0
1698675188.402945,13350.0
1698675188.4234385,13343.0
1698675188.4439318,13334.0
1698675188.4644253,13324.0
1698675188.4849184,13316.0
1698675188.505412,13307.0
1698675188.5259054,13298.0
1698675188.5463986,13256.0
1698675188.5668921,13286.0
1698675188.5873854,13282.0
1698675188.607879,13277.0
1698675188.628372,13262.0
1698675188.6488655,13267.0
1698675188.669359,13265.0
1698675188.6898522,13267.0
1698675188.7103457,13271.0
1698675188.730839,13281.0
1698675188.7513325,13277.0
1698675188.7718258,13278.0
1698675188.792319,13287.0
1698675188.8128126,13257.0
1698675188.8333058,13303.0
1698675188.8537993,13317.0
1698675188.8742926,13328.0
1698675188.894786,13342.0
1698675188.9152794,13355.0
1698675188.9357727,13359.0
1698675188.9562662,13365.0
1698675188.9767594,13373.0
1698675188.997253,13369.0
1698675189.0177462,13373.0
1698675189.0382395,13379.0
1698675189.058733,13390.0
1698675189.0792263,13392.0
1698675189.0997195,13381.0
1698675189.120213,13372.0
1698675189.1407063,13356.0
1698675189.1611998,13349.0
1698675189.181693,13334.0
1698675189.2021863,13329.0
1698675189.2226799,13327.0
1698675189.2431731,13324.0
1698675189.2636666,13329.0
1698675189.2841601,13335.0
1698675189.3046534,13337.0
1698675189.3251467,13339.0
1698675189.34564,13331.0
1698675189.3661335,13328.0
1698675189.386627,13318.0
1698675189.4071205,13318.0
1698675189.4276135,13324.0
1698675189.448107,13326.0
1698675189.4686003,13326.0
1698675189.4890938,13330.0
1698675189.509587,13320.0
1698675189.5300806,13314.0
1698675189.550574,13314.0
1698675189.571067,13310.0
1698675189.5915604,13310.0
1698675189.6120539,13314.0
1698675189.6325474,13328.0
1698675189.653041,13329.0
1698675189.6735342,13332.0
1698675189.6940272,13340.0
1698675189.7145207,13349.0
1698675189.7350142,13364.0
1698675189.7555075,13378.0
1698675189.776001,13393.0
1698675189.7964945,13406.0
1698675189.8169878,13409.0
1698675189.837481,13413.0
1698675189.8579743,13412.0
1698675189.8784678,13418.0
1698675189.898961,13412.0
1698675189.9194546,13420.0
1698675189.939948,13430.0
1698675189.9604414,13440.0
1698675189.9809346,13446.0
1698675190.001428,13446.0
1698675190.0219214,13446.0
1698675190.042415,13436.0
1698675190.0629082,13419.0
1698675190.0834017,13420.0
1698675190.1038947,13418.0
1698675190.1243882,13407.0
1698675190.1448815,13399.0
1698675190.165375,13397.0
1698675190.1858685,13403.0
1698675190.2063618,13380.0
1698675190.2268553,13416.0
1698675190.2473483,13421.0
1698675190.2678418,13424.0
1698675190.2883353,13423.0
1698675190.3088286,13419.0
1698675190.329322,13414.0
1698675190.3498154,13418.0
1698675190.3703086,13416.0
1698675190.390802,13415.0
1698675190.4112954,13416.0
1698675190.431789,13407.0
1698675190.4522822,13400.0
1698675190.4727757,13392.0
1698675190.493269,13391.0
1698675190.5137622,13390.0
1698675190.5342555,13350.0
1698675190.554749,13402.0
1698675190.5752425,13413.0
1698675190.5957358,13416.0
1698675190.6162293,13409.0
1698675190.6367228,13420.0
1698675190.6572158,13430.0
1698675190.6777093,13445.0
1698675190.6982026,13425.0
1698675190.718696,13478.0
1698675190.7391896,13445.0
1698675190.759683,13489.0
1698675190.780176,13458.0
1698675190.8006694,13498.0
1698675190.821163,13504.0
1698675190.8416562,13515.0
1698675190.8621497,13531.0
1698675190.882643,13542.0
1698675190.9031365,13548.0
1698675190.9236295,13549.0
1698675190.944123,13542.0
1698675190.9646165,13543.0
1698675190.98511,13529.0
1698675191.0056033,13529.0
1698675191.0260966,13520.0
1698675191.0465899,13507.0
1698675191.0670834,13461.0
1698675191.0875769,13493.0
1698675191.1080701,13452.0
1698675191.1285636,13498.0
1698675191.149057,13502.0
1698675191.1695502,13501.0
1698675191.1900437,13515.0
1698675191.210537,13516.0
1698675191.2310305,13509.0
1698675191.2515237,13503.0
1698675191.272017,13511.0
1698675191.2925105,13511.0
1698675191.313004,13503.0
1698675191.333497,13499.0
1698675191.3539906,13492.0
1698675191.3744838,13484.0
1698675191.3949773,13471.0
1698675191.4154706,13464.0
1698675191.435964,13463.0
1698675191.4564574,13464.0
1698675191.4769506,13470.0
1698675191.4974442,13461.0
1698675191.5179374,13467.0
1698675191.538431,13472.0
1698675191.5589242,13478.0
1698675191.5794175,13487.0
1698675191.599911,13466.0
1698675191.6204042,13520.0
1698675191.6408978,13526.0
1698675191.661391,13528.0
1698675191.6818845,13534.0
1698675191.702378,13535.0
1698675191.722871,13542.0
1698675191.7433646,13553.0
1698675191.7638578,13567.0
1698675191.7843513,13583.0
1698675191.8048446,13594.0
1698675191.825338,13596.0
1698675191.8458316,13592.0
1698675191.8663247,13590.0
1698675191.8868182,13580.0
1698675191.9073114,13577.0
1698675191.927805,13564.0
1698675191.9482985,13565.0
1698675191.9687915,13564.0
1698675191.9892852,13552.0
1698675192.0097783,13541.0
1698675192.0302715,13537.0
1698675192.050765,13544.0
1698675192.0712583,13550.0
1698675192.091752,13555.0
1698675192.1122453,13554.0
1698675192.1327384,13549.0
1698675192.1532319,13545.0
1698675192.1737251,13502.0
1698675192.1942186,13537.0
1698675192.2147121,13542.0
1698675192.2352057,13542.0
1698675192.255699,13536.0
1698675192.276192,13530.0
1698675192.2966855,13527.0
1698675192.317179,13523.0
1698675192.3376725,13516.0
1698675192.3581657,13514.0
1698675192.3786592,13516.0
1698675192.3991523,13514.0
1698675192.4196458,13526.0
1698675192.440139,13482.0
1698675192.4606326,13521.0
1698675192.481126,13520.0
1698675192.5016193,13529.0
1698675192.5221128,13538.0
1698675192.5426059,13548.0
1698675192.5630994,13562.0
1698675192.583593,13572.0
1698675192.6040862,13582.0
1698675192.6245797,13588.0
1698675192.645073,13553.0
1698675192.6655664,13600.0
1698675192.6860595,13599.0
1698675192.706553,13604.0
1698675192.7270465,13618.0
1698675192.7475398,13640.0
1698675192.7680333,13647.0
1698675192.7885265,13643.0
1698675192.8090198,13638.0
1698675192.829513,13638.0
1698675192.8500066,13628.0
1698675192.8705,13613.0
1698675192.8909934,13615.0
1698675192.9114869,13603.0
1698675192.9319801,13553.0
1698675192.9524734,13588.0
1698675192.972967,13595.0
1698675192.9934602,13608.0
1698675193.0139537,13610.0
1698675193.034447,13614.0
1698675193.0549405,13611.0
1698675193.0754335,13611.0
1698675193.095927,13598.0
1698675193.1164205,13589.0
1698675193.1369138,13590.0
1698675193.1574073,13595.0
1698675193.1779006,13587.0
1698675193.198394,13575.0
1698675193.218887,13565.0
1698675193.2393806,13553.0
1698675193.259874,13547.0
1698675193.2803674,13544.0
1698675193.300861,13545.0
1698675193.3213542,13552.0
1698675193.3418477,13559.0
1698675193.362341,13558.0
1698675193.3828342,13554.0
1698675193.4033277,13552.0
1698675193.423821,13557.0
1698675193.4443145,13561.0
1698675193.464808,13575.0
1698675193.485301,13591.0
1698675193.5057945,13601.0
1698675193.5262878,13607.0
1698675193.5467813,13618.0
1698675193.5672748,13623.0
1698675193.587768,13580.0
1698675193.6082618,13627.0
1698675193.6287546,13630.0
1698675193.6492481,13639.0
1698675193.6697416,13650.0
1698675193.690235,13660.0
1698675193.7107284,13656.0
1698675193.7312217,13651.0
1698675193.751715,13652.0
1698675193.7722085,13647.0
1698675193.7927017,13639.0
1698675193.813195,13621.0
1698675193.8336885,13613.0
1698675193.8541818,13610.0
1698675193.8746753,13583.0
1698675193.8951685,13575.0
1698675193.915662,13578.0
1698675193.9361553,13592.0
1698675193.9566486,13605.0
1698675193.977142,13611.0
1698675193.9976356,13613.0
1698675194.0181289,13610.0
1698675194.0386221,13572.0
1698675194.0591154,13611.0
1698675194.079609,13610.0
1698675194.1001022,13616.0
1698675194.1205957,13617.0
1698675194.1410892,13605.0
1698675194.1615825,13599.0
1698675194.1820757,13587.0
1698675194.202569,13578.0
1698675194.2230625,13570.0
1698675194.243556,13579.0
1698675194.2640493,13580.0
1698675194.2845428,13572.0
1698675194.3050358,13562.0
1698675194.3255293,13512.0
1698675194.3460226,13556.0
1698675194.366516,13558.0
1698675194.3870096,13565.0
1698675194.407503,13577.0
1698675194.4279962,13587.0
1698675194.4484894,13593.0
1698675194.468983,13593.0
1698675194.4894762,13592.0
1698675194.5099695,13597.0
1698675194.5304632,13603.0
1698675194.5509562,13603.0
1698675194.5714498,13599.0
1698675194.591943,13602.0
1698675194.6124363,13603.0
1698675194.63293,13614.0
1698675194.653423,13617.0
1698675194.6739168,13619.0
1698675194.69441,13614.0
1698675194.7149034,13602.0
1698675194.7353966,13597.0
1698675194.75589,13587.0
1698675194.7763836,13583.0
1698675194.796877,13570.0
1698675194.8173704,13556.0
1698675194.8378634,13555.0
1698675194.858357,13561.0
1698675194.8788505,13578.0
1698675194.8993437,13588.0
1698675194.9198372,13592.0
1698675194.9403305,13592.0
1698675194.960824,13598.0
1698675194.981317,13592.0
1698675195.0018103,13593.0
1698675195.022304,13598.0
1698675195.0427973,13598.0
1698675195.0632908,13595.0
1698675195.083784,13582.0
1698675195.1042771,13579.0
1698675195.1247706,13566.0
1698675195.1452641,13556.0
1698675195.1657577,13551.0
1698675195.186251,13549.0
1698675195.2067444,13542.0
1698675195.2272377,13545.0
1698675195.247731,13552.0
1698675195.2682245,13545.0
1698675195.2887177,13542.0
1698675195.3092113,13509.0
1698675195.3297045,13552.0
1698675195.350198,13563.0
1698675195.3706913,13572.0
1698675195.3911846,13581.0
1698675195.411678,13595.0
1698675195.4321713,13598.0
1698675195.4526649,13599.0
1698675195.4731581,13595.0
1698675195.4936516,13600.0
1698675195.5141447,13596.0
1698675195.5346382,13608.0
1698675195.5551317,13612.0
1698675195.575625,13607.0
1698675195.5961185,13612.0
1698675195.6166117,13615.0
1698675195.6371052,13611.0
1698675195.6575985,13613.0
1698675195.6780918,13607.0
1698675195.6985853,13597.0
1698675195.7190785,13583.0
1698675195.739572,13569.0
1698675195.7600653,13558.0
1698675195.7805586,13546.0
1698675195.801052,13536.0
1698675195.8215454,13523.0
1698675195.8420389,13512.0
1698675195.8625321,13516.0
1698675195.8830256,13526.0
1698675195.9035192,13532.0
1698675195.9240122,13539.0
1698675195.9445057,13550.0
1698675195.964999,13568.0
1698675195.9854925,13585.0
1698675196.0059857,13605.0
1698675196.0264792,13613.0
1698675196.046973,13619.0
1698675196.0674658,13620.0
1698675196.0879593,13620.0
1698675196.1084526,13617.0
1698675196.128946,13608.0
1698675196.1494398,13618.0
1698675196.1699328,13625.0
1698675196.190426,13641.0
1698675196.2109194,13656.0
1698675196.231413,13663.0
1698675196.2519062,13667.0
1698675196.2723997,13668.0
1698675196.2928932,13671.0
1698675196.3133864,13677.0
1698675196.3338797,13637.0
1698675196.354373,13681.0
1698675196.3748665,13685.0
1698675196.39536,13692.0
1698675196.4158533,13690.0
1698675196.4363468,13692.0
1698675196.4568398,13694.0
1698675196.4773333,13692.0
1698675196.4978268,13691.0
1698675196.51832,13650.0
1698675196.5388138,13684.0
1698675196.5593069,13683.0
1698675196.5798004,13679.0
1698675196.6002936,13662.0
1698675196.620787,13657.0
1698675196.6412804,13642.0
1698675196.6617737,13637.0
1698675196.6822672,13626.0
1698675196.7027605,13625.0
1698675196.723254,13623.0
1698675196.743747,13622.0
1698675196.7642405,13626.0
1698675196.7847338,13631.0
1698675196.8052273,13646.0
1698675196.8257208,13650.0
1698675196.846214,13658.0
1698675196.8667073,13672.0
1698675196.8872006,13691.0
1698675196.907694,13715.0
1698675196.9281876,13736.0
1698675196.9486809,13755.0
1698675196.9691744,13785.0
1698675196.9896674,13827.0
1698675197.010161,13872.0
1698675197.0306542,13923.0
1698675197.0511477,13984.0
1698675197.0716412,14041.0
1698675197.0921345,14101.0
1698675197.112628,14165.0
1698675197.133121,14227.0
1698675197.1536145,14293.0
1698675197.174108,14345.0
1698675197.1946013,14390.0
1698675197.2150948,14437.0
1698675197.2355878,14485.0
1698675197.2560816,14524.0
1698675197.2765746,14568.0
1698675197.297068,14600.0
1698675197.3175616,14628.0
1698675197.338055,14661.0
1698675197.3585484,14678.0
1698675197.3790414,14708.0
1698675197.3995352,14731.0
1698675197.4200282,14743.0
1698675197.4405215,14768.0
1698675197.4610152,14786.0
1698675197.4815083,14800.0
1698675197.502002,14819.0
1698675197.5224953,14831.0
1698675197.5429883,14801.0
1698675197.563482,14859.0
1698675197.583975,14875.0
1698675197.6044688,14886.0
1698675197.624962,14892.0
1698675197.6454556,14901.0
1698675197.6659489,14909.0
1698675197.686442,14916.0
1698675197.7069356,14929.0
1698675197.727429,14929.0
1698675197.7479224,14941.0
1698675197.7684157,14949.0
1698675197.7889092,14953.0
1698675197.8094022,14962.0
1698675197.8298957,14965.0
1698675197.8503892,14970.0
1698675197.8708825,14978.0
1698675197.891376,14984.0
1698675197.9118693,14994.0
1698675197.9323628,14996.0
1698675197.952856,15004.0
1698675197.9733493,15016.0
1698675197.9938428,15020.0
1698675198.014336,15028.0
1698675198.0348296,15042.0
1698675198.055323,15044.0
1698675198.0758164,15049.0
1698675198.0963097,15057.0
1698675198.116803,15067.0
1698675198.1372964,15073.0
1698675198.1577897,15076.0
1698675198.1782832,15080.0
1698675198.1987767,15089.0
1698675198.2192698,15096.0
1698675198.2397633,15096.0
1698675198.2602565,15110.0
1698675198.28075,15106.0
1698675198.3012433,15110.0
1698675198.3217368,15114.0
1698675198.3422303,15121.0
1698675198.3627234,15120.0
1698675198.3832169,15125.0
1698675198.4037101,15126.0
1698675198.4242036,15131.0
1698675198.444697,15138.0
1698675198.4651904,15140.0
1698675198.4856837,15147.0
1698675198.506177,15146.0
1698675198.5266705,15151.0
1698675198.5471637,15108.0
1698675198.5676572,15118.0
1698675198.5881507,15170.0
1698675198.608644,15168.0
1698675198.6291373,15181.0
1698675198.6496305,15183.0
1698675198.670124,15185.0
1698675198.6906173,15196.0
1698675198.7111108,15201.0
1698675198.7316043,15198.0
1698675198.7520976,15204.0
1698675198.7725909,15214.0
1698675198.7930841,15216.0
1698675198.8135777,15220.0
1698675198.8340712,15218.0
1698675198.8545644,15224.0
1698675198.8750582,15227.0
1698675198.895551,15193.0
1698675198.9160445,15238.0
1698675198.9365377,15253.0
1698675198.9570312,15255.0
1698675198.977525,15263.0
1698675198.998018,15268.0
1698675199.0185118,15276.0
1698675199.0390046,15282.0
1698675199.059498,15291.0
1698675199.0799918,15287.0
1698675199.1004848,15288.0
1698675199.1209786,15290.0
1698675199.1414716,15287.0
1698675199.161965,15288.0
1698675199.1824584,15292.0
1698675199.2029517,15289.0
1698675199.2234452,15291.0
1698675199.2439384,15289.0
1698675199.264432,15292.0
1698675199.2849252,15297.0
1698675199.3054185,15297.0
1698675199.325912,15304.0
1698675199.3464053,15308.0
1698675199.3668988,15307.0
1698675199.387392,15307.0
1698675199.4078856,15308.0
1698675199.4283788,15306.0
1698675199.448872,15301.0
1698675199.4693656,15311.0
1698675199.4898589,15269.0
1698675199.5103524,15317.0
1698675199.5308456,15319.0
1698675199.5513391,15319.0
1698675199.5718324,15316.0
1698675199.5923257,15317.0
1698675199.6128192,15329.0
1698675199.6333125,15330.0
1698675199.653806,15331.0
1698675199.6742992,15331.0
1698675199.6947927,15336.0
1698675199.7152858,15338.0
1698675199.7357793,15340.0
1698675199.7562728,15344.0
1698675199.776766,15347.0
1698675199.7972596,15345.0
1698675199.8177528,15346.0
1698675199.838246,15348.0
1698675199.8587396,15351.0
1698675199.879233,15355.0
1698675199.8997264,15357.0
1698675199.9202194,15358.0
1698675199.9407132,15359.0
1698675199.9612062,15360.0
1698675199.9816997,15359.0
1698675200.0021932,15366.0
1698675200.0226862,15368.0
1698675200.04318,15375.0
1698675200.063673,15380.0
1698675200.0841668,15389.0
1698675200.1046603,15402.0
1698675200.1251533,15414.0
1698675200.1456468,15419.0
1698675200.1661398,15422.0
1698675200.1866336,15438.0
1698675200.2071269,15437.0
1698675200.2276204,15442.0
1698675200.2481136,15453.0
1698675200.268607,15410.0
1698675200.2891004,15465.0
1698675200.3095937,15469.0
1698675200.3300872,15476.0
1698675200.3505805,15481.0
1698675200.371074,15484.0
1698675200.3915672,15445.0
1698675200.4120603,15492.0
1698675200.432554,15496.0
1698675200.4530473,15452.0
1698675200.4735408,15499.0
1698675200.4940343,15506.0
1698675200.514527,15508.0
1698675200.5350208,15502.0
1698675200.555514,15507.0
1698675200.5760076,15502.0
1698675200.5965009,15499.0
1698675200.6169944,15499.0
1698675200.637488,15496.0
1698675200.657981,15490.0
1698675200.6784744,15490.0
1698675200.6989677,15441.0
1698675200.7194612,15486.0
1698675200.7399545,15485.0
1698675200.760448,15486.0
1698675200.7809415,15490.0
1698675200.8014345,15492.0
1698675200.821928,15493.0
1698675200.8424213,15499.0
1698675200.8629148,15504.0
1698675200.8834083,15503.0
1698675200.9039016,15511.0
1698675200.9243948,15518.0
1698675200.944888,15525.0
1698675200.9653816,15530.0
1698675200.985875,15493.0
1698675201.0063684,15540.0
1698675201.026862,15537.0
1698675201.0473552,15539.0
1698675201.0678484,15538.0
1698675201.0883417,15531.0
1698675201.1088352,15526.0
1698675201.1293287,15522.0
1698675201.149822,15518.0
1698675201.1703155,15511.0
1698675201.1908085,15511.0
1698675201.211302,15507.0
1698675201.2317953,15507.0
1698675201.2522888,15499.0
1698675201.2727823,15494.0
1698675201.2932756,15493.0
1698675201.313769,15493.0
1698675201.3342621,15487.0
1698675201.3547556,15484.0
1698675201.375249,15481.0
1698675201.3957424,15487.0
1698675201.416236,15485.0
1698675201.4367292,15489.0
1698675201.457223,15486.0
1698675201.4777157,15489.0
1698675201.4982092,15486.0
1698675201.5187027,15489.0
1698675201.539196,15490.0
1698675201.5596898,15492.0
1698675201.5801828,15492.0
1698675201.600676,15493.0
1698675201.6211693,15497.0
1698675201.6416628,15493.0
1698675201.6621563,15495.0
1698675201.6826496,15493.0
1698675201.7031431,15497.0
1698675201.7236364,15500.0
1698675201.7441297,15455.0
1698675201.7646232,15494.0
1698675201.7851164,15492.0
1698675201.8056102,15498.0
1698675201.8261032,15500.0
1698675201.8465967,15505.0
1698675201.8670897,15498.0
1698675201.8875833,15503.0
1698675201.908077,15503.0
1698675201.92857,15503.0
1698675201.9490638,15509.0
1698675201.9695568,15508.0
1698675201.9900503,15508.0
1698675202.0105436,15511.0
1698675202.0310369,15505.0
1698675202.0515306,15506.0
1698675202.0720236,15503.0
1698675202.0925171,15504.0
1698675202.1130104,15501.0
1698675202.133504,15495.0
1698675202.1539972,15499.0
1698675202.1744905,15450.0
1698675202.194984,15450.0
1698675202.2154772,15496.0
1698675202.2359707,15498.0
1698675202.256464,15492.0
1698675202.2769573,15451.0
1698675202.2974508,15490.0
1698675202.317944,15487.0
1698675202.3384376,15489.0
1698675202.3589308,15489.0
1698675202.3794243,15490.0
1698675202.3999174,15495.0
1698675202.4204109,15495.0
1698675202.4409044,15497.0
1698675202.4613976,15494.0
1698675202.4818912,15506.0
1698675202.5023844,15507.0
1698675202.522878,15517.0
1698675202.5433712,15519.0
1698675202.5638645,15525.0
1698675202.584358,15531.0
1698675202.6048512,15536.0
1698675202.6253448,15533.0
1698675202.6458378,15542.0
1698675202.6663315,15546.0
1698675202.6868248,15555.0
1698675202.707318,15559.0
1698675202.7278116,15566.0
1698675202.7483048,15567.0
1698675202.7687984,15564.0
1698675202.7892916,15566.0
1698675202.8097851,15560.0
1698675202.8302784,15555.0
1698675202.8507714,15548.0
1698675202.8712652,15539.0
1698675202.8917582,15529.0
1698675202.912252,15471.0
1698675202.9327455,15515.0
1698675202.9532382,15509.0
1698675202.973732,15504.0
1698675202.994225,15502.0
1698675203.0147188,15497.0
1698675203.035212,15451.0
1698675203.0557055,15492.0
1698675203.076199,15482.0
1698675203.0966918,15482.0
1698675203.1171856,15439.0
1698675203.1376789,15476.0
1698675203.1581724,15476.0
1698675203.1786659,15474.0
1698675203.1991591,15476.0
1698675203.2196524,15472.0
1698675203.2401457,15473.0
1698675203.2606392,15467.0
1698675203.2811325,15465.0
1698675203.301626,15456.0
1698675203.3221195,15455.0
1698675203.3426127,15410.0
1698675203.363106,15458.0
1698675203.3835993,15461.0
1698675203.4040928,15459.0
1698675203.4245863,15460.0
1698675203.4450796,15459.0
1698675203.465573,15459.0
1698675203.4860663,15462.0
1698675203.5065596,15461.0
1698675203.5270529,15464.0
1698675203.5475464,15417.0
1698675203.56804,15459.0
1698675203.5885332,15463.0
1698675203.6090267,15459.0
1698675203.6295197,15459.0
1698675203.6500132,15461.0
1698675203.6705065,15457.0
1698675203.7114935,15412.0
1698675203.7319868,15455.0
1698675203.7524803,15455.0
1698675203.7729733,15456.0
1698675203.7934668,15411.0
1698675203.8139603,15456.0
1698675203.8344536,15457.0
1698675203.854947,15454.0
1698675203.8754404,15459.0
1698675203.8959336,15460.0
1698675203.916427,15456.0
1698675203.9369204,15457.0
1698675203.957414,15455.0
1698675203.9779072,15459.0
1698675203.9984007,15464.0
1698675204.018894,15462.0
1698675204.0393872,15457.0
1698675204.0598807,15459.0
1698675204.080374,15459.0
1698675204.1008675,15458.0
1698675204.1213608,15458.0
1698675204.1418543,15458.0
1698675204.1623476,15454.0
1698675204.1828408,15464.0
1698675204.2033343,15459.0
1698675204.2238276,15460.0
1698675204.244321,15463.0
1698675204.2648144,15463.0
1698675204.2853081,15456.0
1698675204.305801,15460.0
1698675204.3262944,15455.0
1698675204.346788,15454.0
1698675204.3672812,15449.0
1698675204.387775,15444.0
1698675204.408268,15446.0
1698675204.4287617,15392.0
1698675204.4492548,15437.0
1698675204.469748,15438.0
1698675204.4902418,15435.0
1698675204.5107348,15440.0
1698675204.5312285,15428.0
1698675204.5517216,15429.0
1698675204.5722148,15424.0
1698675204.5927086,15427.0
1698675204.6132016,15420.0
1698675204.6336951,15423.0
1698675204.6541884,15421.0
1698675204.674682,15423.0
1698675204.6951754,15415.0
1698675204.7156684,15417.0
1698675204.7361622,15417.0
1698675204.7566552,15412.0
1698675204.7771487,15415.0
1698675204.797642,15419.0
1698675204.8181355,15417.0
1698675204.838629,15414.0
1698675204.859122,15416.0
1698675204.8796155,15417.0
1698675204.9001088,15418.0
1698675204.9206023,15415.0
1698675204.9410956,15376.0
1698675204.961589,15414.0
1698675204.9820826,15414.0
1698675205.0025756,15420.0
1698675205.0230691,15415.0
1698675205.0435624,15412.0
1698675205.064056,15408.0
1698675205.0845494,15408.0
1698675205.1050427,15407.0
1698675205.125536,15395.0
1698675205.1460292,15396.0
1698675205.1665227,15391.0
1698675205.187016,15384.0
1698675205.2075095,15375.0
1698675205.228003,15380.0
1698675205.248496,15377.0
1698675205.2689896,15370.0
1698675205.2894828,15372.0
1698675205.3099763,15373.0
1698675205.3304694,15369.0
1698675205.350963,15371.0
1698675205.3714564,15366.0
1698675205.3919497,15369.0
1698675205.4124432,15367.0
1698675205.4329362,15363.0
1698675205.45343,15369.0
1698675205.4739232,15363.0
1698675205.4944167,15368.0
1698675205.5149102,15366.0
1698675205.5354033,15367.0
1698675205.5558968,15370.0
1698675205.5763898,15367.0
1698675205.5968835,15369.0
1698675205.617377,15365.0
1698675205.6378703,15368.0
1698675205.6583636,15367.0
1698675205.6788568,15370.0
1698675205.6993504,15360.0
1698675205.7198439,15354.0
1698675205.7403371,15346.0
1698675205.7608306,15343.0
1698675205.781324,15330.0
1698675205.8018172,15328.0
1698675205.8223102,15324.0
1698675205.842804,15317.0
1698675205.8632975,15315.0
1698675205.8837907,15256.0
1698675205.9042842,15302.0
1698675205.924777,15299.0
1698675205.9452708,15303.0
1698675205.965764,15293.0
1698675205.9862576,15295.0
1698675206.006751,15284.0
1698675206.0272443,15282.0
1698675206.0477378,15280.0
1698675206.0682309,15271.0
1698675206.0887244,15275.0
1698675206.109218,15275.0
1698675206.1297112,15273.0
1698675206.1502047,15274.0
1698675206.170698,15271.0
1698675206.1911914,15271.0
1698675206.2116845,15271.0
1698675206.232178,15271.0
1698675206.2526715,15265.0
1698675206.2731647,15224.0
1698675206.2936583,15270.0
1698675206.3141515,15272.0
1698675206.3346448,15265.0
1698675206.3551383,15256.0
1698675206.3756316,15249.0
1698675206.396125,15238.0
1698675206.4166183,15226.0
1698675206.4371119,15220.0
1698675206.4576051,15207.0
1698675206.4780984,15198.0
1698675206.498592,15186.0
1698675206.5190852,15175.0
1698675206.5395787,15173.0
1698675206.560072,15168.0
1698675206.5805655,15164.0
1698675206.6010585,15159.0
1698675206.621552,15153.0
1698675206.6420455,15149.0
1698675206.6625388,15143.0
1698675206.6830323,15093.0
1698675206.7035255,15139.0
1698675206.724019,15133.0
1698675206.7445123,15127.0
1698675206.7650056,15128.0
1698675206.785499,15124.0
1698675206.8059924,15122.0
1698675206.8264859,15114.0
1698675206.8469791,15111.0
1698675206.867473,15110.0
1698675206.887966,15112.0
1698675206.9084592,15110.0
1698675206.9289527,15104.0
1698675206.949446,15105.0
1698675206.9699397,15102.0
1698675206.990433,15098.0
1698675207.010926,15098.0
1698675207.0314195,15094.0
1698675207.0519128,15080.0
1698675207.0724063,15072.0
1698675207.0928996,15062.0
1698675207.113393,15044.0
1698675207.1338866,14983.0
1698675207.1543796,15017.0
1698675207.174873,15001.0
1698675207.1953664,14987.0
1698675207.2158601,14983.0
1698675207.2363532,14972.0
1698675207.2568467,14966.0
1698675207.27734,14958.0
1698675207.2978332,14952.0
1698675207.318327,14951.0
1698675207.33882,14943.0
1698675207.3593137,14937.0
1698675207.379807,14936.0
1698675207.4003003,14926.0
1698675207.4207938,14926.0
1698675207.4412868,14922.0
1698675207.4617805,14920.0
1698675207.4822736,14876.0
1698675207.502767,14914.0
1698675207.5232606,14915.0
1698675207.5437539,14919.0
1698675207.5642471,14919.0
1698675207.5847404,14916.0
1698675207.605234,14918.0
1698675207.6257272,14920.0
1698675207.6462207,14878.0
1698675207.6667142,14923.0
1698675207.6872072,14928.0
1698675207.7077007,14930.0
1698675207.728194,14925.0
1698675207.7486875,14925.0
1698675207.769181,14924.0
1698675207.7896743,14916.0
1698675207.8101676,14871.0
1698675207.8306608,14898.0
1698675207.8511543,14887.0
1698675207.8716476,14879.0
1698675207.892141,14864.0
1698675207.9126346,14854.0
1698675207.9331279,14843.0
1698675207.9536211,14828.0
1698675207.9741144,14824.0
1698675207.994608,14821.0
1698675208.0151014,14775.0
1698675208.0355947,14774.0
1698675208.056088,14812.0
1698675208.0765815,14811.0
1698675208.0970747,14813.0
1698675208.117568,14809.0
1698675208.1380615,14804.0
1698675208.158555,14806.0
1698675208.1790483,14806.0
1698675208.1995416,14815.0
1698675208.220035,14805.0
1698675208.2405283,14806.0
1698675208.2610214,14808.0
1698675208.2815151,14809.0
1698675208.3020084,14767.0
1698675208.322502,14810.0
1698675208.3429954,14812.0
1698675208.3634882,14814.0
1698675208.383982,14816.0
1698675208.4044752,14817.0
1698675208.4249687,14825.0
1698675208.4454622,14825.0
1698675208.4659555,14827.0
1698675208.486449,14830.0
1698675208.5069418,14785.0
1698675208.5274355,14820.0
1698675208.547929,14818.0
1698675208.5684223,14804.0
1698675208.5889158,14800.0
1698675208.609409,14788.0
1698675208.6299024,14778.0
1698675208.6503959,14772.0
1698675208.6708891,14768.0
1698675208.6913826,14763.0
1698675208.711876,14771.0
1698675208.7323694,14767.0
1698675208.7528627,14776.0
1698675208.773356,14777.0
1698675208.7938495,14784.0
1698675208.8143427,14785.0
1698675208.8348362,14795.0
1698675208.8553295,14802.0
1698675208.875823,14805.0
1698675208.8963163,14805.0
1698675208.9168096,14802.0
1698675208.937303,14795.0
1698675208.9577963,14791.0
1698675208.9782898,14785.0
1698675208.998783,14775.0
1698675209.0192766,14766.0
1698675209.03977,14763.0
1698675209.0602632,14759.0
1698675209.0807567,14712.0
1698675209.10125,14754.0
1698675209.1217434,14754.0
1698675209.1422367,14754.0
1698675209.1627302,14755.0
1698675209.1832235,14705.0
1698675209.2037168,14753.0
1698675209.2242103,14744.0
1698675209.2447035,14742.0
1698675209.265197,14736.0
1698675209.2856905,14725.0
1698675209.3061836,14710.0
1698675209.326677,14695.0
1698675209.3471704,14685.0
1698675209.3676639,14675.0
1698675209.3881571,14670.0
1698675209.4086506,14660.0
1698675209.4291441,14651.0
1698675209.4496372,14604.0
1698675209.4701307,14649.0
1698675209.490624,14644.0
1698675209.5111175,14641.0
1698675209.5316107,14644.0
1698675209.5521042,14638.0
1698675209.5725977,14636.0
1698675209.5930908,14632.0
1698675209.6135843,14639.0
1698675209.6340775,14632.0
1698675209.654571,14627.0
1698675209.6750646,14627.0
1698675209.695558,14622.0
1698675209.716051,14622.0
1698675209.7365444,14627.0
1698675209.7570379,14625.0
1698675209.7775311,14629.0
1698675209.798025,14619.0
1698675209.8185182,14624.0
1698675209.8390117,14631.0
1698675209.8595047,14626.0
1698675209.879998,14630.0
1698675209.9004917,14630.0
1698675209.9209847,14629.0
1698675209.9414785,14630.0
1698675209.9619718,14631.0
1698675209.9824648,14580.0
1698675210.0029585,14615.0
1698675210.0234516,14600.0
1698675210.043945,14588.0
1698675210.0644386,14580.0
1698675210.0849319,14571.0
1698675210.1054254,14562.0
1698675210.1259184,14556.0
1698675210.1464121,14545.0
1698675210.1669052,14550.0
1698675210.1873987,14547.0
1698675210.2078922,14549.0
1698675210.2283854,14545.0
1698675210.248879,14546.0
1698675210.269372,14550.0
1698675210.2898655,14543.0
1698675210.310359,14554.0
1698675210.3308523,14556.0
1698675210.3513458,14553.0
1698675210.371839,14557.0
1698675210.3923326,14559.0
1698675210.4128256,14561.0
1698675210.433319,14524.0
1698675210.4538126,14572.0
1698675210.4743059,14573.0
1698675210.4947994,14576.0
1698675210.5152926,14576.0
1698675210.535786,14584.0
1698675210.5562792,14588.0
1698675210.5767727,14590.0
1698675210.5972662,14592.0
1698675210.6177595,14596.0
1698675210.638253,14598.0
1698675210.658746,14603.0
1698675210.6792395,14591.0
1698675210.699733,14581.0
1698675210.7202263,14571.0
1698675210.7407196,14566.0
1698675210.761213,14558.0
1698675210.7817063,14557.0
1698675210.8021996,14546.0
1698675210.822693,14545.0
1698675210.8431864,14541.0
1698675210.86368,14541.0
1698675210.8841732,14546.0
1698675210.9046667,14544.0
1698675210.9251602,14544.0
1698675210.9456534,14551.0
1698675210.9661467,14547.0
1698675210.98664,14553.0
1698675211.0071335,14550.0
1698675211.027627,14547.0
1698675211.0481203,14553.0
1698675211.0686135,14564.0
1698675211.089107,14560.0
1698675211.1096003,14565.0
1698675211.1300938,14572.0
1698675211.150587,14577.0
1698675211.1710806,14582.0
1698675211.1915739,14584.0
1698675211.2120671,14587.0
1698675211.2325604,14551.0
1698675211.253054,14601.0
1698675211.2735474,14609.0
1698675211.2940407,14614.0
1698675211.3145342,14617.0
1698675211.3350272,14616.0
1698675211.3555207,14617.0
1698675211.3760142,14609.0
1698675211.3965075,14600.0
1698675211.417001,14600.0
1698675211.4374943,14594.0
1698675211.4579878,14593.0
1698675211.478481,14585.0
1698675211.4989743,14580.0
1698675211.5194678,14576.0
1698675211.539961,14581.0
1698675211.5604546,14579.0
1698675211.580948,14586.0
1698675211.6014414,14589.0
1698675211.6219347,14588.0
1698675211.642428,14590.0
1698675211.6629214,14596.0
1698675211.6834147,14598.0
1698675211.7039082,14602.0
1698675211.7244017,14601.0
1698675211.7448947,14562.0
1698675211.7653883,14608.0
1698675211.7858815,14614.0
1698675211.806375,14617.0
1698675211.8268683,14621.0
1698675211.8473618,14617.0
1698675211.8678553,14618.0
1698675211.8883483,14629.0
1698675211.9088418,14630.0
1698675211.929335,14638.0
1698675211.9498286,14594.0
1698675211.9703221,14644.0
1698675211.9908154,14648.0
1698675212.0113087,14647.0
1698675212.031802,14644.0
1698675212.0522954,14641.0
1698675212.0727887,14624.0
1698675212.0932822,14621.0
1698675212.1137757,14606.0
1698675212.134269,14557.0
1698675212.1547623,14552.0
1698675212.1752555,14589.0
1698675212.195749,14577.0
1698675212.2162423,14579.0
1698675212.2367358,14571.0
1698675212.2572293,14567.0
1698675212.2777228,14567.0
1698675212.2982159,14562.0
1698675212.3187091,14560.0
1698675212.3392026,14555.0
1698675212.3596961,14557.0
1698675212.3801897,14558.0
1698675212.400683,14559.0
1698675212.421176,14556.0
1698675212.4416695,14560.0
1698675212.4621627,14557.0
1698675212.4826562,14562.0
1698675212.5031497,14564.0
1698675212.523643,14564.0
1698675212.5441365,14563.0
1698675212.5646296,14565.0
1698675212.585123,14567.0
1698675212.6056166,14572.0
1698675212.62611,14576.0
1698675212.6466033,14579.0
1698675212.6670966,14581.0
1698675212.68759,14584.0
1698675212.7080832,14578.0
1698675212.728577,14569.0
1698675212.7490702,14559.0
1698675212.7695637,14546.0
1698675212.790057,14535.0
1698675212.8105502,14523.0
1698675212.8310437,14509.0
1698675212.8515368,14499.0
1698675212.8720305,14491.0
1698675212.8925238,14491.0
1698675212.913017,14484.0
1698675212.9335105,14483.0
1698675212.9540038,14484.0
1698675212.974497,14482.0
1698675212.9949906,14476.0
1698675213.0154839,14476.0
1698675213.0359774,14474.0
1698675213.0564706,14476.0
1698675213.0769641,14472.0
1698675213.0974572,14478.0
1698675213.1179507,14479.0
1698675213.1384442,14485.0
1698675213.1589375,14482.0
1698675213.179431,14486.0
1698675213.1999242,14488.0
1698675213.2204175,14489.0
1698675213.240911,14499.0
1698675213.2614043,14503.0
1698675213.2818978,14509.0
1698675213.302391,14509.0
1698675213.3228846,14520.0
1698675213.3433778,14521.0
1698675213.363871,14522.0
1698675213.3843646,14484.0
1698675213.4048579,14525.0
1698675213.4253514,14516.0
1698675213.4458447,14510.0
1698675213.466338,14501.0
1698675213.4868314,14496.0
1698675213.5073247,14486.0
1698675213.5278182,14478.0
1698675213.5483115,14469.0
1698675213.568805,14465.0
1698675213.5892982,14459.0
1698675213.6097915,14461.0
1698675213.6302853,14461.0
1698675213.6507783,14463.0
1698675213.6712716,14463.0
1698675213.691765,14464.0
1698675213.7122583,14419.0
1698675213.7327518,14464.0
1698675213.7532454,14464.0
1698675213.7737384,14469.0
1698675213.794232,14475.0
1698675213.8147252,14474.0
1698675213.8352187,14482.0
1698675213.8557122,14482.0
1698675213.8762057,14487.0
1698675213.896699,14489.0
1698675213.917192,14448.0
1698675213.9376855,14492.0
1698675213.958179,14502.0
1698675213.9786723,14508.0
1698675213.9991658,14516.0
1698675214.0196593,14523.0
1698675214.0401523,14531.0
1698675214.0606458,14534.0
1698675214.081139,14545.0
1698675214.1016326,14540.0
1698675214.1221259,14505.0
1698675214.1426194,14540.0
1698675214.1631129,14493.0
1698675214.183606,14532.0
1698675214.2040994,14525.0
1698675214.2245927,14514.0
1698675214.2450862,14516.0
1698675214.2655797,14518.0
1698675214.286073,14510.0
1698675214.3065665,14513.0
1698675214.3270595,14515.0
1698675214.347553,14520.0
1698675214.3680463,14521.0
1698675214.3885398,14525.0
1698675214.4090333,14528.0
1698675214.4295266,14533.0
1698675214.4500198,14535.0
1698675214.470513,14541.0
1698675214.4910066,14545.0
1698675214.5115,14547.0
1698675214.5319934,14556.0
1698675214.552487,14559.0
1698675214.5729802,14563.0
1698675214.5934734,14571.0
1698675214.6139667,14535.0
1698675214.6344602,14592.0
1698675214.6549537,14601.0
1698675214.675447,14603.0
1698675214.6959405,14613.0
1698675214.7164335,14618.0
1698675214.736927,14623.0
1698675214.7574203,14632.0
1698675214.7779138,14640.0
1698675214.7984073,14645.0
1698675214.8189006,14647.0
1698675214.839394,14648.0
1698675214.8598871,14646.0
1698675214.8803806,14642.0
1698675214.9008741,14626.0
1698675214.9213674,14627.0
1698675214.941861,14628.0
1698675214.9623542,14619.0
1698675214.9828477,14623.0
1698675215.0033407,14624.0
1698675215.0238342,14629.0
1698675215.0443277,14638.0
1698675215.064821,14643.0
1698675215.0853145,14654.0
1698675215.105808,14659.0
1698675215.126301,14664.0
1698675215.1467943,14662.0
1698675215.1672878,14659.0
1698675215.1877813,14652.0
1698675215.2082748,14649.0
1698675215.228768,14639.0
1698675215.2492616,14635.0
1698675215.2697546,14632.0
1698675215.2902482,14625.0
1698675215.3107417,14620.0
1698675215.331235,14625.0
1698675215.3517284,14620.0
1698675215.3722217,14622.0
1698675215.3927147,14623.0
1698675215.4132085,14628.0
1698675215.4337018,14628.0
1698675215.454195,14625.0
1698675215.4746885,14636.0
1698675215.4951818,14635.0
1698675215.5156753,14643.0
1698675215.5361686,14644.0
1698675215.556662,14640.0
1698675215.5771554,14638.0
1698675215.5976486,14636.0
1698675215.6181421,14627.0
1698675215.6386354,14622.0
1698675215.659129,14612.0
1698675215.6796222,14608.0
1698675215.7001154,14604.0
1698675215.720609,14599.0
1698675215.7411022,14599.0
1698675215.7615957,14603.0
1698675215.782089,14603.0
1698675215.8025825,14566.0
1698675215.8230758,14613.0
1698675215.843569,14618.0
1698675215.8640625,14620.0
1698675215.8845558,14588.0
1698675215.9050493,14636.0
1698675215.9255428,14643.0
1698675215.9460359,14649.0
1698675215.9665294,14658.0
1698675215.9870226,14669.0
1698675216.0075161,14671.0
1698675216.0280094,14682.0
1698675216.048503,14683.0
1698675216.0689962,14674.0
1698675216.0894895,14675.0
1698675216.109983,14674.0
1698675216.1304762,14672.0
1698675216.1509695,14664.0
1698675216.1714633,14668.0
1698675216.1919563,14664.0
1698675216.2124498,14623.0
1698675216.232943,14662.0
1698675216.2534363,14657.0
1698675216.2739298,14652.0
1698675216.294423,14637.0
1698675216.3149168,14586.0
1698675216.33541,14617.0
1698675216.3559034,14604.0
1698675216.3763967,14592.0
1698675216.39689,14584.0
1698675216.4173834,14575.0
1698675216.437877,14576.0
1698675216.4583704,14570.0
1698675216.4788635,14567.0
1698675216.499357,14568.0
1698675216.5198503,14568.0
1698675216.5403438,14571.0
1698675216.5608373,14570.0
1698675216.5813305,14574.0
1698675216.601824,14578.0
1698675216.622317,14579.0
1698675216.6428103,14580.0
1698675216.6633039,14582.0
1698675216.6837974,14585.0
1698675216.7042909,14586.0
1698675216.7247841,14591.0
1698675216.7452772,14582.0
1698675216.7657707,14592.0
1698675216.7862642,14598.0
1698675216.8067575,14599.0
1698675216.827251,14600.0
1698675216.8477445,14602.0
1698675216.8682377,14603.0
1698675216.888731,14609.0
1698675216.9092243,14605.0
1698675216.9297178,14615.0
1698675216.9502113,14606.0
1698675216.9707046,14605.0
1698675216.991198,14597.0
1698675217.0116913,14545.0
1698675217.0321846,14579.0
1698675217.0526779,14566.0
1698675217.0731714,14559.0
1698675217.093665,14514.0
1698675217.1141582,14552.0
1698675217.1346517,14549.0
1698675217.1551447,14547.0
1698675217.1756382,14553.0
1698675217.1961317,14557.0
1698675217.216625,14557.0
1698675217.2371185,14558.0
1698675217.2576118,14563.0
1698675217.2781053,14522.0
1698675217.2985983,14567.0
1698675217.3190918,14570.0
1698675217.3395853,14572.0
1698675217.3600786,14574.0
1698675217.380572,14575.0
1698675217.4010653,14580.0
1698675217.4215586,14588.0
1698675217.442052,14583.0
1698675217.4625454,14592.0
1698675217.483039,14599.0
1698675217.5035322,14602.0
1698675217.5240257,14608.0
1698675217.544519,14612.0
1698675217.5650122,14571.0
1698675217.5855057,14618.0
1698675217.605999,14618.0
1698675217.6264925,14616.0
1698675217.6469858,14614.0
1698675217.6674793,14607.0
1698675217.6879728,14598.0
1698675217.7084658,14591.0
1698675217.7289593,14583.0
1698675217.7494526,14574.0
1698675217.769946,14565.0
1698675217.7904396,14561.0
1698675217.8109329,14556.0
1698675217.8314261,14557.0
1698675217.8519194,14551.0
1698675217.872413,14554.0
1698675217.8929062,14560.0
1698675217.9133997,14557.0
1698675217.933893,14559.0
1698675217.9543865,14562.0
1698675217.9748797,14562.0
1698675217.995373,14570.0
1698675218.0158665,14561.0
1698675218.03636,14570.0
1698675218.0568533,14571.0
1698675218.0773466,14574.0
1698675218.0978398,14580.0
1698675218.1183333,14579.0
1698675218.1388268,14586.0
1698675218.15932,14549.0
1698675218.1798136,14592.0
1698675218.200307,14594.0
1698675218.2208004,14604.0
1698675218.2412937,14602.0
1698675218.261787,14615.0
1698675218.2822804,14615.0
1698675218.3027737,14619.0
1698675218.323267,14625.0
1698675218.3437605,14629.0
1698675218.364254,14633.0
1698675218.384747,14600.0
1698675218.4052405,14640.0
1698675218.4257338,14640.0
1698675218.4462273,14638.0
1698675218.4667208,14626.0
1698675218.487214,14618.0
1698675218.5077074,14605.0
1698675218.5282006,14598.0
1698675218.5486941,14596.0
1698675218.5691874,14588.0
1698675218.589681,14584.0
1698675218.6101744,14589.0
1698675218.6306674,14595.0
1698675218.651161,14603.0
1698675218.6716542,14605.0
1698675218.6921477,14600.0
1698675218.712641,14595.0
1698675218.7331345,14586.0
1698675218.753628,14574.0
1698675218.774121,14558.0
1698675218.7946146,14545.0
1698675218.8151078,14532.0
1698675218.8356013,14521.0
1698675218.8560948,14514.0
1698675218.8765879,14508.0
1698675218.8970816,14494.0
1698675218.9175746,14483.0
1698675218.9380682,14467.0
1698675218.9585614,14464.0
1698675218.979055,14465.0
1698675218.9995484,14482.0
1698675219.0200415,14499.0
1698675219.0405352,14539.0
1698675219.0610282,14581.0
1698675219.0815215,14629.0
1698675219.102015,14674.0
1698675219.1225083,14672.0
1698675219.143002,14741.0
1698675219.1634953,14749.0
1698675219.1839883,14752.0
1698675219.2044818,14758.0
1698675219.224975,14753.0
1698675219.2454689,14756.0
1698675219.2659621,14756.0
1698675219.2864556,14755.0
1698675219.306949,14758.0
1698675219.327442,14755.0
1698675219.3479354,14756.0
1698675219.368429,14756.0
1698675219.3889225,14754.0
1698675219.4094157,14715.0
1698675219.4299092,14757.0
1698675219.4504023,14756.0
1698675219.4708958,14722.0
1698675219.4913893,14770.0
1698675219.5118825,14763.0
1698675219.532376,14769.0
1698675219.5528693,14771.0
1698675219.5733628,14774.0
1698675219.5938559,14774.0
1698675219.6143494,14783.0
1698675219.6348429,14778.0
1698675219.6553361,14795.0
1698675219.6758296,14750.0
1698675219.696323,14797.0
1698675219.7168164,14800.0
1698675219.7373095,14806.0
1698675219.757803,14808.0
1698675219.7782965,14811.0
1698675219.7987897,14817.0
1698675219.8192832,14823.0
1698675219.8397765,14828.0
1698675219.8602698,14822.0
1698675219.8807633,14820.0
1698675219.9012566,14812.0
1698675219.92175,14803.0
1698675219.9422433,14796.0
1698675219.9627368,14788.0
1698675219.98323,14775.0
1698675220.0037234,14775.0
1698675220.024217,14756.0
1698675220.0447102,14759.0
1698675220.0652037,14754.0
1698675220.085697,14753.0
1698675220.1061904,14759.0
1698675220.1266837,14755.0
1698675220.147177,14756.0
1698675220.1676705,14754.0
1698675220.1881638,14756.0
1698675220.2086573,14758.0
1698675220.2291505,14759.0
1698675220.249644,14765.0
1698675220.2701373,14761.0
1698675220.2906306,14766.0
1698675220.311124,14769.0
1698675220.3316174,14774.0
1698675220.3521109,14774.0
1698675220.3726041,14778.0
1698675220.3930976,14783.0
1698675220.413591,14781.0
1698675220.4340842,14786.0
1698675220.4545777,14791.0
1698675220.475071,14796.0
1698675220.4955645,14800.0
1698675220.5160582,14803.0
1698675220.536551,14807.0
1698675220.5570445,14805.0
1698675220.5775378,14809.0
1698675220.5980313,14797.0
1698675220.6185248,14794.0
1698675220.639018,14787.0
1698675220.6595118,14777.0
1698675220.6800046,14768.0
1698675220.700498,14761.0
1698675220.7209916,14754.0
1698675220.7414849,14757.0
1698675220.7619786,14700.0
1698675220.7824717,14739.0
1698675220.802965,14738.0
1698675220.8234584,14695.0
1698675220.8439517,14733.0
1698675220.864445,14730.0
1698675220.8849385,14725.0
1698675220.905432,14724.0
1698675220.9259253,14675.0
1698675220.9464185,14720.0
1698675220.966912,14715.0
1698675220.9874053,14674.0
1698675221.0078986,14715.0
1698675221.028392,14715.0
1698675221.0488856,14715.0
1698675221.0693789,14717.0
1698675221.0898721,14715.0
1698675221.1103654,14721.0
1698675221.130859,14677.0
1698675221.1513524,14722.0
1698675221.1718457,14720.0
1698675221.1923392,14724.0
1698675221.2128325,14727.0
1698675221.2333257,14732.0
1698675221.253819,14735.0
1698675221.2743125,14736.0
1698675221.294806,14694.0
1698675221.3152993,14727.0
1698675221.3357928,14721.0
1698675221.3562858,14675.0
1698675221.3767793,14715.0
1698675221.3972726,14707.0
1698675221.417766,14701.0
1698675221.4382596,14695.0
1698675221.4587529,14691.0
1698675221.4792461,14693.0
1698675221.4997394,14684.0
1698675221.520233,14685.0
1698675221.5407264,14689.0
1698675221.5612195,14687.0
1698675221.5817132,14689.0
1698675221.6022062,14695.0
1698675221.6226997,14695.0
1698675221.643193,14701.0
1698675221.6636863,14701.0
1698675221.68418,14702.0
1698675221.704673,14703.0
1698675221.7251668,14708.0
1698675221.74566,14666.0
1698675221.7661533,14668.0
1698675221.7866468,14716.0
1698675221.8071399,14720.0
1698675221.8276336,14723.0
1698675221.848127,14731.0
1698675221.8686204,14732.0
1698675221.8891134,14733.0
1698675221.909607,14696.0
1698675221.9301004,14747.0
1698675221.9505937,14750.0
1698675221.9710872,14756.0
1698675221.9915805,14753.0
1698675222.012074,14751.0
1698675222.032567,14748.0
1698675222.0530603,14740.0
1698675222.073554,14733.0
1698675222.0940473,14681.0
1698675222.1145408,14669.0
1698675222.135034,14710.0
1698675222.155527,14703.0
1698675222.1760209,14701.0
1698675222.1965141,14699.0
1698675222.2170076,14697.0
1698675222.237501,14695.0
1698675222.2579944,14692.0
1698675222.2784877,14695.0
1698675222.298981,14698.0
1698675222.3194745,14701.0
1698675222.3399677,14702.0
1698675222.3604612,14697.0
1698675222.3809545,14658.0
1698675222.401448,14701.0
1698675222.4219415,14702.0
1698675222.4424345,14709.0
1698675222.462928,14708.0
1698675222.4834213,14713.0
1698675222.5039148,14718.0
1698675222.524408,14680.0
1698675222.5449016,14682.0
1698675222.5653949,14724.0
1698675222.5858881,14729.0
1698675222.6063817,14687.0
1698675222.626875,14738.0
1698675222.6473684,14744.0
1698675222.6678617,14746.0
1698675222.6883552,14754.0
1698675222.7088485,14755.0
1698675222.7293417,14749.0
1698675222.7498353,14754.0
1698675222.7703285,14749.0
1698675222.790822,14737.0
1698675222.8113155,14733.0
1698675222.8318086,14725.0
1698675222.852302,14719.0
1698675222.8727953,14714.0
1698675222.8932889,14706.0
1698675222.9137821,14705.0
1698675222.9342756,14706.0
1698675222.9547691,14697.0
1698675222.9752622,14699.0
1698675222.9957557,14699.0
1698675223.016249,14661.0
1698675223.0367424,14699.0
1698675223.057236,14656.0
1698675223.0777292,14705.0
1698675223.098223,14701.0
1698675223.1187158,14712.0
1698675223.1392093,14716.0
1698675223.1597025,14713.0
1698675223.180196,14672.0
1698675223.2006898,14718.0
1698675223.2211828,14682.0
1698675223.241676,14722.0
1698675223.2621694,14731.0
1698675223.2826629,14730.0
1698675223.3031561,14738.0
1698675223.3236496,14741.0
1698675223.3441432,14745.0
1698675223.3646364,14749.0
1698675223.3851297,14749.0
1698675223.405623,14712.0
1698675223.4261165,14761.0
1698675223.4466102,14763.0
1698675223.4671032,14768.0
1698675223.4875968,14768.0
1698675223.5080898,14759.0
1698675223.5285833,14752.0
1698675223.5490768,14744.0
1698675223.56957,14737.0
1698675223.5900638,14729.0
1698675223.6105568,14681.0
1698675223.6310503,14717.0
1698675223.6515436,14675.0
1698675223.672037,14714.0
1698675223.6925306,14712.0
1698675223.7130237,14707.0
1698675223.7335172,14712.0
1698675223.7540104,14707.0
1698675223.774504,14711.0
1698675223.794997,14709.0
1698675223.8154905,14710.0
1698675223.835984,14708.0
1698675223.8564773,14707.0
1698675223.8769708,14718.0
1698675223.897464,14717.0
1698675223.9179573,14721.0
1698675223.9384506,14719.0
1698675223.958944,14686.0
1698675223.9794376,14726.0
1698675223.9999309,14733.0
1698675224.0204244,14735.0
1698675224.0409174,14696.0
1698675224.061411,14740.0
1698675224.0819044,14750.0
1698675224.1023977,14749.0
1698675224.1228912,14751.0
1698675224.1433845,14755.0
1698675224.163878,14754.0
1698675224.184371,14720.0
1698675224.2048645,14759.0
1698675224.225358,14714.0
1698675224.2458513,14749.0
1698675224.2663448,14746.0
1698675224.2868378,14696.0
1698675224.3073316,14733.0
1698675224.3278246,14724.0
1698675224.348318,14718.0
1698675224.3688116,14715.0
1698675224.3893049,14715.0
1698675224.4097984,14709.0
1698675224.4302914,14717.0
1698675224.4507852,14713.0
1698675224.4712784,14710.0
1698675224.4917715,14711.0
1698675224.5122652,14668.0
1698675224.5327582,14714.0
1698675224.553252,14714.0
1698675224.5737453,14669.0
1698675224.5942383,14713.0
1698675224.614732,14720.0
1698675224.635225,14722.0
1698675224.6557188,14724.0
1698675224.676212,14727.0
1698675224.6967056,14729.0
1698675224.717199,14729.0
1698675224.7376919,14734.0
1698675224.7581856,14742.0
1698675224.778679,14738.0
1698675224.7991724,14743.0
1698675224.8196657,14750.0
1698675224.8401592,14755.0
1698675224.8606524,14714.0
1698675224.8811457,14763.0
1698675224.9016392,14766.0
1698675224.9221325,14771.0
1698675224.942626,14773.0
1698675224.9631193,14769.0
1698675224.9836128,14758.0
1698675225.004106,14752.0
1698675225.0245993,14742.0
1698675225.0450928,14740.0
1698675225.065586,14735.0
1698675225.0860796,14730.0
1698675225.106573,14726.0
1698675225.1270664,14728.0
1698675225.1475596,14726.0
1698675225.168053,14723.0
1698675225.1885464,14722.0
1698675225.2090397,14724.0
1698675225.2295332,14726.0
1698675225.2500267,14723.0
1698675225.2705197,14736.0
1698675225.2910132,14732.0
1698675225.3115065,14736.0
1698675225.3523898,14735.0
1698675225.3727796,14738.0
1698675225.3931694,14736.0
1698675225.4135592,14735.0
1698675225.433949,14745.0
1698675225.4543386,14750.0
1698675225.4747286,14746.0
1698675225.4951181,14754.0
1698675225.5155082,14754.0
1698675225.5358977,14762.0
1698675225.5562875,14764.0
1698675225.5766773,14765.0
1698675225.597067,14773.0
1698675225.6174567,14774.0
1698675225.6378467,14781.0
1698675225.6582363,14785.0
1698675225.6786263,14783.0
1698675225.699016,14772.0
1698675225.7194057,14771.0
1698675225.7397954,14770.0
1698675225.7601852,14720.0
1698675225.780575,14759.0
1698675225.8009648,14750.0
1698675225.8213544,14744.0
1698675225.8417444,14739.0
1698675225.862134,14740.0
1698675225.882524,14740.0
1698675225.9029136,14744.0
1698675225.9233036,14740.0
1698675225.9436932,14746.0
1698675225.964083,14748.0
1698675225.984473,14755.0
1698675226.0048623,14761.0
1698675226.025252,14760.0
1698675226.0456421,14737.0
1698675226.0660315,14735.0
1698675226.0864217,14724.0
1698675226.1068113,14729.0
1698675226.127201,14721.0
1698675226.1475909,14726.0
1698675226.1679807,14713.0
1698675226.1883705,14699.0
1698675226.2087605,14697.0
1698675226.2291498,14688.0
1698675226.2495399,14683.0
1698675226.2699294,14682.0
1698675226.2903192,14674.0
1698675226.310709,14668.0
1698675226.3310988,14668.0
1698675226.3514884,14660.0
1698675226.3718784,14657.0
1698675226.3922682,14645.0
1698675226.412658,14627.0
1698675226.4330475,14614.0
1698675226.4534376,14600.0
1698675226.4738274,14585.0
1698675226.4942172,14575.0
1698675226.514607,14555.0
1698675226.5349965,14542.0
1698675226.5553865,14518.0
1698675226.5757759,14507.0
1698675226.5961661,14489.0
1698675226.6165557,14468.0
1698675226.6369455,14460.0
1698675226.6573353,14488.0
1698675226.677725,14501.0
1698675226.6981146,14500.0
1698675226.7185047,14462.0
1698675226.7388942,14509.0
1698675226.7592843,14477.0
1698675226.7796738,14524.0
1698675226.8000636,14531.0
1698675226.8204534,14539.0
1698675226.8408432,14558.0
1698675226.861233,14573.0
1698675226.8816228,14594.0
1698675226.9020123,14619.0
1698675226.9224024,14613.0
1698675226.942792,14593.0
1698675226.963182,14576.0
1698675226.9835715,14516.0
1698675227.0039613,14537.0
1698675227.0243511,14528.0
1698675227.044741,14529.0
1698675227.0651307,14523.0
1698675227.0855205,14525.0
1698675227.10591,14471.0
1698675227.1263,14503.0
1698675227.1466897,14444.0
1698675227.1670797,14471.0
1698675227.1874692,14418.0
1698675227.207859,14444.0
1698675227.2282488,14428.0
1698675227.2486389,14417.0
1698675227.2690284,14402.0
1698675227.2894182,14394.0
1698675227.309808,14381.0
1698675227.3301978,14336.0
1698675227.3505874,14371.0
1698675227.3709774,14358.0
1698675227.391367,14351.0
1698675227.4117568,14340.0
1698675227.4321465,14337.0
1698675227.4525363,14326.0
1698675227.4729261,14321.0
1698675227.493316,14314.0
1698675227.5137055,14301.0
1698675227.5340958,14301.0
1698675227.554485,14289.0
1698675227.574875,14288.0
1698675227.595265,14282.0
1698675227.6156542,14234.0
1698675227.6360445,14272.0
1698675227.656434,14266.0
1698675227.676824,14260.0
1698675227.6972136,14252.0
1698675227.7176034,14243.0
1698675227.7379932,14237.0
1698675227.758383,14231.0
1698675227.7787726,14230.0
1698675227.7991626,14228.0
1698675227.8195522,14223.0
1698675227.839942,14210.0
1698675227.8603318,14192.0
1698675227.8807216,14174.0
1698675227.9011111,14156.0
1698675227.9215012,14142.0
1698675227.941891,14122.0
1698675227.9622808,14115.0
1698675227.9826703,14093.0
1698675228.0030603,14082.0
1698675228.02345,14074.0
1698675228.04384,14056.0
1698675228.0642295,14050.0
1698675228.0846193,14038.0
1698675228.105009,14030.0
1698675228.1253989,14023.0
1698675228.1457887,14017.0
1698675228.1661785,14008.0
1698675228.186568,14004.0
1698675228.206958,13999.0
1698675228.2273476,13994.0
1698675228.2477376,13996.0
1698675228.2681272,13987.0
1698675228.288517,13984.0
1698675228.3089068,13983.0
1698675228.3292966,13982.0
1698675228.3496864,13963.0
1698675228.3700762,13974.0
1698675228.3904657,13966.0
1698675228.4108558,13965.0
1698675228.4312453,13925.0
1698675228.4516354,13956.0
1698675228.472025,13958.0
1698675228.4924147,13960.0
1698675228.5128045,13959.0
1698675228.5331943,13947.0
1698675228.553584,13948.0
1698675228.5739741,13946.0
1698675228.5943635,13900.0
1698675228.6147535,13931.0
1698675228.635143,13920.0
1698675228.655533,13866.0
1698675228.6759226,13901.0
1698675228.6963124,13886.0
1698675228.7167025,13875.0
1698675228.737092,13868.0
1698675228.757482,13858.0
1698675228.7778716,13852.0
1698675228.7982616,13839.0
1698675228.8186512,13825.0
1698675228.839041,13821.0
1698675228.8594308,13820.0
1698675228.8798206,13819.0
1698675228.9002101,13826.0
1698675228.9206002,13785.0
1698675228.9409895,13854.0
1698675228.9613795,13888.0
1698675228.9817693,13937.0
1698675229.002159,13976.0
1698675229.022549,13994.0
1698675229.0429387,14002.0
1698675229.0633283,14029.0
1698675229.0837185,14048.0
1698675229.1041079,14079.0
1698675229.124498,14104.0
1698675229.1448877,14127.0
1698675229.165277,14141.0
1698675229.185667,14151.0
1698675229.2060568,14165.0
1698675229.2264464,14172.0
1698675229.2468364,14188.0
1698675229.267226,14188.0
1698675229.287616,14178.0
1698675229.3080056,14158.0
1698675229.3283956,14156.0
1698675229.3487852,14138.0
1698675229.369175,14126.0
1698675229.3895648,14114.0
1698675229.4099545,14100.0
1698675229.4303443,14099.0
1698675229.450734,14110.0
1698675229.4711237,14116.0
1698675229.4915137,14117.0
1698675229.5119033,14108.0
1698675229.5322933,14052.0
1698675229.5526829,14085.0
1698675229.5730727,14093.0
1698675229.5934625,14100.0
1698675229.6138523,14102.0
1698675229.634242,14088.0
1698675229.6546319,14074.0
1698675229.6750214,14058.0
1698675229.6954114,14061.0
1698675229.715801,14061.0
1698675229.736191,14058.0
1698675229.7565806,14054.0
1698675229.7769704,14063.0
1698675229.7973602,14067.0
1698675229.81775,14073.0
1698675229.83814,14083.0
1698675229.8585296,14095.0
1698675229.8789194,14094.0
1698675229.8993092,14099.0
1698675229.919699,14107.0
1698675229.9400885,14113.0
1698675229.9604785,14120.0
1698675229.980868,14078.0
