timestamp,ppg
1698415496.0145342,21145.0
1698415496.034964,21151.0
1698415496.055394,21145.0
1698415496.075824,21152.0
1698415496.0962539,21151.0
1698415496.1166835,21154.0
1698415496.1371136,21156.0
1698415496.1575437,21155.0
1698415496.1779733,21161.0
1698415496.1984034,21165.0
1698415496.2188332,21163.0
1698415496.2392633,21168.0
1698415496.2596931,21168.0
1698415496.280123,21169.0
1698415496.300553,21177.0
1698415496.320983,21170.0
1698415496.3414128,21171.0
1698415496.3618429,21176.0
1698415496.3822727,21167.0
1698415496.4027026,21173.0
1698415496.4231327,21177.0
1698415496.4435625,21179.0
1698415496.4639924,21179.0
1698415496.4844224,21188.0
1698415496.5048523,21184.0
1698415496.5252821,21191.0
1698415496.5457122,21199.0
1698415496.566142,21198.0
1698415496.586572,21195.0
1698415496.607002,21202.0
1698415496.6274319,21216.0
1698415496.6478617,21220.0
1698415496.6682916,21218.0
1698415496.6887217,21225.0
1698415496.7091515,21231.0
1698415496.7295816,21231.0
1698415496.7500117,21240.0
1698415496.7704413,21245.0
1698415496.7908711,21249.0
1698415496.811301,21256.0
1698415496.8317308,21266.0
1698415496.852161,21270.0
1698415496.8725908,21278.0
1698415496.8930209,21279.0
1698415496.9134507,21291.0
1698415496.9338806,21287.0
1698415496.9543104,21297.0
1698415496.9747405,21299.0
1698415496.9951704,21310.0
1698415497.0156004,21311.0
1698415497.0360305,21312.0
1698415497.0564601,21317.0
1698415497.07689,21326.0
1698415497.09732,21324.0
1698415497.11775,21327.0
1698415497.13818,21327.0
1698415497.15861,21333.0
1698415497.1790397,21332.0
1698415497.1994696,21332.0
1698415497.2198997,21333.0
1698415497.2403295,21338.0
1698415497.2607596,21338.0
1698415497.2811897,21335.0
1698415497.3016193,21339.0
1698415497.3220494,21335.0
1698415497.3424792,21337.0
1698415497.362909,21336.0
1698415497.3833392,21353.0
1698415497.403769,21346.0
1698415497.4241989,21352.0
1698415497.444629,21355.0
1698415497.4650586,21357.0
1698415497.4854882,21359.0
1698415497.5059185,21364.0
1698415497.5263484,21368.0
1698415497.5467782,21370.0
1698415497.5672085,21379.0
1698415497.5876381,21379.0
1698415497.6080682,21382.0
1698415497.628498,21387.0
1698415497.648928,21388.0
1698415497.669358,21394.0
1698415497.6897879,21396.0
1698415497.7102177,21396.0
1698415497.7306478,21408.0
1698415497.7510777,21408.0
1698415497.7715075,21411.0
1698415497.7919376,21413.0
1698415497.8123674,21412.0
1698415497.8327973,21415.0
1698415497.8532274,21422.0
1698415497.8736572,21423.0
1698415497.894087,21433.0
1698415497.9145172,21432.0
1698415497.934947,21433.0
1698415497.9553769,21433.0
1698415497.975807,21434.0
1698415497.9962368,21431.0
1698415498.0166667,21433.0
1698415498.0370967,21429.0
1698415498.0575266,21425.0
1698415498.0779562,21425.0
1698415498.0983865,21423.0
1698415498.1188164,21427.0
1698415498.139246,21419.0
1698415498.159676,21426.0
1698415498.180106,21421.0
1698415498.2005358,21419.0
1698415498.2209659,21425.0
1698415498.2413957,21430.0
1698415498.2618258,21433.0
1698415498.2822556,21432.0
1698415498.3026855,21433.0
1698415498.3231156,21435.0
1698415498.3435454,21436.0
1698415498.363975,21438.0
1698415498.3844054,21441.0
1698415498.4048352,21444.0
1698415498.425265,21442.0
1698415498.4456952,21443.0
1698415498.466125,21447.0
1698415498.4865549,21453.0
1698415498.506985,21450.0
1698415498.5274148,21453.0
1698415498.5478446,21451.0
1698415498.568275,21455.0
1698415498.5887046,21460.0
1698415498.6091344,21460.0
1698415498.6295645,21462.0
1698415498.6499944,21464.0
1698415498.6704242,21468.0
1698415498.6908543,21471.0
1698415498.7112842,21470.0
1698415498.731714,21468.0
1698415498.752144,21468.0
1698415498.772574,21466.0
1698415498.7930038,21457.0
1698415498.8134336,21461.0
1698415498.8338635,21463.0
1698415498.8542936,21456.0
1698415498.8747234,21450.0
1698415498.8951533,21451.0
1698415498.9155831,21445.0
1698415498.9360132,21451.0
1698415498.956443,21451.0
1698415498.9768732,21446.0
1698415498.997303,21441.0
1698415499.0177329,21448.0
1698415499.038163,21448.0
1698415499.0585928,21447.0
1698415499.0790226,21449.0
1698415499.0994527,21447.0
1698415499.1198826,21452.0
1698415499.1403124,21457.0
1698415499.1607425,21450.0
1698415499.1811724,21453.0
1698415499.2016022,21456.0
1698415499.2220323,21459.0
1698415499.2424622,21465.0
1698415499.262892,21461.0
1698415499.283322,21466.0
1698415499.303752,21467.0
1698415499.3241818,21472.0
1698415499.344612,21468.0
1698415499.3650415,21474.0
1698415499.3854716,21479.0
1698415499.4059017,21477.0
1698415499.4263315,21485.0
1698415499.4467616,21486.0
1698415499.4671915,21490.0
1698415499.487621,21488.0
1698415499.508051,21486.0
1698415499.528481,21490.0
1698415499.5489109,21494.0
1698415499.5693407,21493.0
1698415499.5897708,21505.0
1698415499.6102006,21500.0
1698415499.6306307,21494.0
1698415499.6510603,21494.0
1698415499.6714904,21489.0
1698415499.6919205,21486.0
1698415499.7123504,21485.0
1698415499.7327805,21477.0
1698415499.7532103,21466.0
1698415499.77364,21461.0
1698415499.79407,21443.0
1698415499.8145,21443.0
1698415499.83493,21428.0
1698415499.85536,21419.0
1698415499.8757899,21409.0
1698415499.8962195,21401.0
1698415499.9166496,21389.0
1698415499.9370797,21393.0
1698415499.9575095,21374.0
1698415499.9779396,21362.0
1698415499.9983695,21365.0
1698415500.0187993,21349.0
1698415500.0392292,21336.0
1698415500.0596592,21331.0
1698415500.080089,21321.0
1698415500.100519,21307.0
1698415500.120949,21299.0
1698415500.1413789,21298.0
1698415500.1618085,21308.0
1698415500.1822383,21307.0
1698415500.2026684,21306.0
1698415500.2230983,21318.0
1698415500.2435284,21325.0
1698415500.2639585,21328.0
1698415500.284388,21343.0
1698415500.3048182,21354.0
1698415500.325248,21361.0
1698415500.345678,21369.0
1698415500.366108,21372.0
1698415500.3865378,21385.0
1698415500.4069679,21391.0
1698415500.4273977,21401.0
1698415500.4478276,21409.0
1698415500.4682577,21424.0
1698415500.4886875,21427.0
1698415500.5091174,21432.0
1698415500.5295475,21439.0
1698415500.5499773,21445.0
1698415500.5704072,21434.0
1698415500.5908372,21437.0
1698415500.611267,21438.0
1698415500.631697,21437.0
1698415500.652127,21437.0
1698415500.6725569,21441.0
1698415500.6929867,21440.0
1698415500.7134168,21436.0
1698415500.7338467,21437.0
1698415500.7542765,21438.0
1698415500.7747064,21440.0
1698415500.7951365,21439.0
1698415500.8155663,21426.0
1698415500.8359962,21432.0
1698415500.856426,21433.0
1698415500.8768559,21430.0
1698415500.897286,21429.0
1698415500.9177158,21423.0
1698415500.9381456,21429.0
1698415500.9585757,21425.0
1698415500.9790056,21421.0
1698415500.9994357,21421.0
1698415501.0198655,21423.0
1698415501.0402954,21426.0
1698415501.0607252,21424.0
1698415501.0811553,21422.0
1698415501.1015851,21425.0
1698415501.1220152,21424.0
1698415501.142445,21422.0
1698415501.162875,21429.0
1698415501.183305,21424.0
1698415501.2037349,21416.0
1698415501.2241647,21416.0
1698415501.2445948,21429.0
1698415501.265025,21428.0
1698415501.2854545,21429.0
1698415501.3058846,21429.0
1698415501.3263144,21438.0
1698415501.3467443,21434.0
1698415501.3671744,21434.0
1698415501.3876042,21425.0
1698415501.408034,21422.0
1698415501.4284642,21423.0
1698415501.448894,21419.0
1698415501.4693239,21412.0
1698415501.489754,21416.0
1698415501.5101836,21410.0
1698415501.5306134,21416.0
1698415501.5510437,21409.0
1698415501.5714734,21407.0
1698415501.5919032,21412.0
1698415501.6123333,21417.0
1698415501.6327631,21407.0
1698415501.653193,21412.0
1698415501.673623,21417.0
1698415501.694053,21416.0
1698415501.714483,21418.0
1698415501.7349129,21417.0
1698415501.7553427,21425.0
1698415501.7757728,21429.0
1698415501.7962027,21431.0
1698415501.8166325,21442.0
1698415501.8370626,21439.0
1698415501.8574924,21443.0
1698415501.8779223,21451.0
1698415501.8983524,21453.0
1698415501.9187822,21456.0
1698415501.939212,21451.0
1698415501.9596422,21461.0
1698415501.980072,21462.0
1698415502.0005019,21463.0
1698415502.020932,21465.0
1698415502.0413618,21476.0
1698415502.0617914,21465.0
1698415502.0822217,21471.0
1698415502.1026516,21462.0
1698415502.1230814,21459.0
1698415502.1435118,21456.0
1698415502.1639414,21450.0
1698415502.184371,21445.0
1698415502.204801,21447.0
1698415502.225231,21442.0
1698415502.2456608,21440.0
1698415502.2660909,21434.0
1698415502.2865207,21441.0
1698415502.3069506,21441.0
1698415502.3273807,21440.0
1698415502.3478103,21435.0
1698415502.3682406,21432.0
1698415502.3886704,21434.0
1698415502.4091003,21436.0
1698415502.4295306,21429.0
1698415502.4499602,21425.0
1698415502.4703898,21419.0
1698415502.4908202,21425.0
1698415502.51125,21425.0
1698415502.5316799,21422.0
1698415502.5521102,21426.0
1698415502.5725398,21425.0
1698415502.5929694,21424.0
1698415502.6133997,21420.0
1698415502.6338296,21415.0
1698415502.6542594,21424.0
1698415502.6746898,21421.0
1698415502.6951194,21420.0
1698415502.7155492,21421.0
1698415502.7359793,21420.0
1698415502.7564092,21414.0
1698415502.776839,21415.0
1698415502.797269,21415.0
1698415502.817699,21410.0
1698415502.8381288,21401.0
1698415502.8585587,21399.0
1698415502.8789883,21383.0
1698415502.8994184,21378.0
1698415502.9198484,21371.0
1698415502.9402783,21364.0
1698415502.9607084,21366.0
1698415502.9811382,21352.0
1698415503.001568,21341.0
1698415503.021998,21340.0
1698415503.042428,21342.0
1698415503.0628579,21333.0
1698415503.083288,21326.0
1698415503.1037178,21324.0
1698415503.1241477,21314.0
1698415503.1445777,21311.0
1698415503.1650076,21299.0
1698415503.1854374,21301.0
1698415503.2058675,21293.0
1698415503.2262974,21288.0
1698415503.2467272,21291.0
1698415503.2671573,21288.0
1698415503.2875872,21289.0
1698415503.308017,21288.0
1698415503.328447,21287.0
1698415503.348877,21286.0
1698415503.3693068,21290.0
1698415503.389737,21294.0
1698415503.4101667,21295.0
1698415503.4305966,21296.0
1698415503.4510267,21298.0
1698415503.4714563,21297.0
1698415503.4918864,21293.0
1698415503.5123165,21300.0
1698415503.532746,21294.0
1698415503.553176,21298.0
1698415503.573606,21290.0
1698415503.5940359,21295.0
1698415503.6144657,21280.0
1698415503.6348958,21277.0
1698415503.6553257,21278.0
1698415503.6757555,21269.0
1698415503.6961856,21266.0
1698415503.7166154,21263.0
1698415503.7370455,21255.0
1698415503.7574751,21261.0
1698415503.7779052,21266.0
1698415503.7983353,21264.0
1698415503.8187652,21257.0
1698415503.839195,21265.0
1698415503.859625,21267.0
1698415503.880055,21264.0
1698415503.9004848,21261.0
1698415503.920915,21265.0
1698415503.9413447,21267.0
1698415503.9617748,21267.0
1698415503.9822047,21270.0
1698415504.0026345,21268.0
1698415504.0230644,21269.0
1698415504.0434945,21273.0
1698415504.0639243,21271.0
1698415504.0843542,21275.0
1698415504.1047843,21270.0
1698415504.125214,21269.0
1698415504.145644,21270.0
1698415504.166074,21264.0
1698415504.186504,21267.0
1698415504.2069335,21267.0
1698415504.2273636,21267.0
1698415504.2477937,21266.0
1698415504.2682233,21261.0
1698415504.2886534,21258.0
1698415504.3090832,21244.0
1698415504.329513,21237.0
1698415504.3499432,21239.0
1698415504.370373,21227.0
1698415504.3908029,21222.0
1698415504.411233,21217.0
1698415504.4316628,21219.0
1698415504.452093,21212.0
1698415504.4725227,21209.0
1698415504.4929526,21206.0
1698415504.5133827,21203.0
1698415504.5338125,21205.0
1698415504.5542424,21204.0
1698415504.5746725,21196.0
1698415504.5951023,21189.0
1698415504.6155322,21193.0
1698415504.6359622,21193.0
1698415504.656392,21194.0
1698415504.676822,21188.0
1698415504.697252,21193.0
1698415504.717682,21183.0
1698415504.7381117,21186.0
1698415504.7585416,21182.0
1698415504.7789717,21183.0
1698415504.7994015,21187.0
1698415504.8198316,21177.0
1698415504.8402617,21172.0
1698415504.8606913,21176.0
1698415504.8811212,21169.0
1698415504.901551,21174.0
1698415504.9219809,21170.0
1698415504.942411,21170.0
1698415504.9628408,21160.0
1698415504.9832706,21163.0
1698415505.0037007,21156.0
1698415505.0241306,21150.0
1698415505.0445602,21142.0
1698415505.0649905,21139.0
1698415505.0854204,21132.0
1698415505.1058505,21127.0
1698415505.1262805,21126.0
1698415505.1467102,21120.0
1698415505.16714,21118.0
1698415505.18757,21121.0
1698415505.208,21119.0
1698415505.22843,21115.0
1698415505.2488601,21115.0
1698415505.2692897,21112.0
1698415505.2897196,21112.0
1698415505.3101497,21111.0
1698415505.3305795,21112.0
1698415505.3510096,21114.0
1698415505.3714397,21121.0
1698415505.3918693,21113.0
1698415505.4122994,21115.0
1698415505.4327292,21115.0
1698415505.453159,21108.0
1698415505.4735892,21115.0
1698415505.494019,21109.0
1698415505.514449,21116.0
1698415505.534879,21122.0
1698415505.5553086,21116.0
1698415505.5757382,21120.0
1698415505.5961685,21124.0
1698415505.6165984,21135.0
1698415505.6370282,21138.0
1698415505.6574585,21142.0
1698415505.6778882,21140.0
1698415505.698318,21142.0
1698415505.718748,21138.0
1698415505.739178,21133.0
1698415505.7596078,21135.0
1698415505.7800379,21131.0
1698415505.8004677,21129.0
1698415505.8208978,21125.0
1698415505.8413277,21118.0
1698415505.8617575,21113.0
1698415505.8821876,21122.0
1698415505.9026175,21117.0
1698415505.9230473,21109.0
1698415505.9434774,21113.0
1698415505.9639072,21111.0
1698415505.984337,21113.0
1698415506.0047672,21104.0
1698415506.025197,21100.0
1698415506.0456269,21096.0
1698415506.066057,21097.0
1698415506.0864868,21088.0
1698415506.1069167,21082.0
1698415506.1273468,21083.0
1698415506.1477766,21082.0
1698415506.1682062,21082.0
1698415506.1886365,21080.0
1698415506.2090664,21076.0
1698415506.229496,21080.0
1698415506.249926,21077.0
1698415506.270356,21080.0
1698415506.2907858,21077.0
1698415506.3112159,21079.0
1698415506.3316457,21084.0
1698415506.3520756,21089.0
1698415506.3725057,21084.0
1698415506.3929355,21085.0
1698415506.4133654,21083.0
1698415506.4337955,21083.0
1698415506.454225,21080.0
1698415506.4746554,21075.0
1698415506.4950852,21072.0
1698415506.515515,21067.0
1698415506.5359452,21062.0
1698415506.556375,21064.0
1698415506.5768049,21055.0
1698415506.597235,21057.0
1698415506.6176648,21052.0
1698415506.6380947,21049.0
1698415506.658525,21041.0
1698415506.6789546,21041.0
1698415506.6993845,21036.0
1698415506.7198145,21036.0
1698415506.7402444,21036.0
1698415506.7606742,21032.0
1698415506.7811043,21025.0
1698415506.8015342,21027.0
1698415506.821964,21025.0
1698415506.842394,21020.0
1698415506.862824,21018.0
1698415506.8832538,21019.0
1698415506.9036837,21021.0
1698415506.9241135,21022.0
1698415506.9445436,21016.0
1698415506.9649734,21020.0
1698415506.9854033,21022.0
1698415507.0058331,21024.0
1698415507.0262632,21029.0
1698415507.046693,21036.0
1698415507.067123,21040.0
1698415507.087553,21042.0
1698415507.1079829,21032.0
1698415507.1284127,21037.0
1698415507.1488428,21031.0
1698415507.1692727,21016.0
1698415507.1897027,21018.0
1698415507.2101326,21013.0
1698415507.2305624,21009.0
1698415507.2509925,21000.0
1698415507.2714224,21001.0
1698415507.2918522,20991.0
1698415507.3122823,20989.0
1698415507.3327122,20992.0
1698415507.353142,20987.0
1698415507.373572,20990.0
1698415507.394002,20986.0
1698415507.4144318,20988.0
1698415507.434862,20986.0
1698415507.4552915,20987.0
1698415507.4757216,20995.0
1698415507.4961517,20996.0
1698415507.5165815,20996.0
1698415507.5370116,20999.0
1698415507.5574415,20994.0
1698415507.577871,20997.0
1698415507.598301,20998.0
1698415507.618731,20998.0
1698415507.6391609,20999.0
1698415507.6595907,21006.0
1698415507.6800208,21003.0
1698415507.7004507,21005.0
1698415507.7208805,21004.0
1698415507.7413104,21001.0
1698415507.7617404,21005.0
1698415507.7821703,21003.0
1698415507.8026004,21008.0
1698415507.8230305,21005.0
1698415507.8434603,21007.0
1698415507.86389,20999.0
1698415507.88432,20999.0
1698415507.90475,20989.0
1698415507.92518,20982.0
1698415507.94561,20973.0
1698415507.96604,20966.0
1698415507.9864695,20962.0
1698415508.0068996,20955.0
1698415508.0273297,20942.0
1698415508.0477595,20940.0
1698415508.0681896,20940.0
1698415508.0886195,20933.0
1698415508.1090493,20934.0
1698415508.1294792,20933.0
1698415508.1499093,20929.0
1698415508.170339,20930.0
1698415508.190769,20930.0
1698415508.211199,20922.0
1698415508.231629,20927.0
1698415508.2520585,20929.0
1698415508.2724884,20930.0
1698415508.2929184,20935.0
1698415508.3133483,20936.0
1698415508.3337784,20930.0
1698415508.3542085,20939.0
1698415508.374638,20938.0
1698415508.3950682,20941.0
1698415508.415498,20941.0
1698415508.4359279,20941.0
1698415508.456358,20942.0
1698415508.4767878,20943.0
1698415508.4972177,20950.0
1698415508.5176477,20948.0
1698415508.5380776,20947.0
1698415508.5585077,20942.0
1698415508.5789375,20946.0
1698415508.5993674,20935.0
1698415508.6197975,20926.0
1698415508.6402273,20922.0
1698415508.6606572,20911.0
1698415508.6810873,20907.0
1698415508.701517,20888.0
1698415508.721947,20894.0
1698415508.742377,20882.0
1698415508.762807,20888.0
1698415508.7832367,20884.0
1698415508.8036668,20881.0
1698415508.8240967,20883.0
1698415508.8445265,20883.0
1698415508.8649564,20883.0
1698415508.8853865,20893.0
1698415508.9058163,20893.0
1698415508.9262462,20899.0
1698415508.946676,20902.0
1698415508.9671059,20904.0
1698415508.987536,20903.0
1698415509.0079658,20907.0
1698415509.0283957,20913.0
1698415509.0488257,20917.0
1698415509.0692556,20922.0
1698415509.0896854,20928.0
1698415509.1101155,20930.0
1698415509.1305454,20938.0
1698415509.150975,20942.0
1698415509.1714053,20948.0
1698415509.1918352,20954.0
1698415509.2122653,20956.0
1698415509.232695,20954.0
1698415509.253125,20965.0
1698415509.273555,20964.0
1698415509.293985,20958.0
1698415509.3144147,20958.0
1698415509.3348448,20956.0
1698415509.355275,20945.0
1698415509.3757045,20940.0
1698415509.3961346,20926.0
1698415509.4165645,20921.0
1698415509.4369943,20923.0
1698415509.4574244,20917.0
1698415509.4778543,20920.0
1698415509.498284,20920.0
1698415509.5187142,20915.0
1698415509.539144,20925.0
1698415509.559574,20928.0
1698415509.580004,20933.0
1698415509.6004336,20931.0
1698415509.6208634,20930.0
1698415509.6412938,20932.0
1698415509.6617234,20932.0
1698415509.6821532,20938.0
1698415509.7025833,20903.0
1698415509.7230132,20934.0
1698415509.743443,20927.0
1698415509.763873,20929.0
1698415509.784303,20932.0
1698415509.8047328,20936.0
1698415509.825163,20934.0
1698415509.8455927,20945.0
1698415509.8660226,20942.0
1698415509.8864527,20948.0
1698415509.9068825,20948.0
1698415509.9273126,20952.0
1698415509.9477425,20962.0
1698415509.9681723,20956.0
1698415509.9886024,20957.0
1698415510.0090322,20966.0
1698415510.029462,20960.0
1698415510.0498922,20954.0
1698415510.070322,20946.0
1698415510.090752,20935.0
1698415510.111182,20934.0
1698415510.1316118,20927.0
1698415510.1520414,20927.0
1698415510.1724718,20925.0
1698415510.1929016,20926.0
1698415510.2133315,20924.0
1698415510.2337618,20926.0
1698415510.2541914,20921.0
1698415510.274621,20927.0
1698415510.295051,20927.0
1698415510.315481,20930.0
1698415510.3359108,20927.0
1698415510.356341,20934.0
1698415510.3767707,20936.0
1698415510.3972006,20944.0
1698415510.4176307,20938.0
1698415510.4380603,20940.0
1698415510.4584904,20945.0
1698415510.4789205,20948.0
1698415510.4993503,20946.0
1698415510.5197806,20949.0
1698415510.5402102,20947.0
1698415510.5606399,20952.0
1698415510.5810702,20956.0
1698415510.6015,20953.0
1698415510.62193,20957.0
1698415510.6423602,20956.0
1698415510.6627898,20961.0
1698415510.6832194,20959.0
1698415510.7036498,20965.0
1698415510.7240796,20969.0
1698415510.7445095,20973.0
1698415510.7649398,20971.0
1698415510.7853694,20974.0
1698415510.8057992,20977.0
1698415510.8262293,20976.0
1698415510.8466592,20974.0
1698415510.867089,20984.0
1698415510.8875191,20980.0
1698415510.907949,20979.0
1698415510.9283788,20982.0
1698415510.9488087,20985.0
1698415510.9692383,20994.0
1698415510.9896684,20986.0
1698415511.0100985,20990.0
1698415511.0305283,20988.0
1698415511.0509584,20993.0
1698415511.0713882,20990.0
1698415511.091818,20997.0
1698415511.112248,20998.0
1698415511.132678,20998.0
1698415511.153108,21003.0
1698415511.1735377,21003.0
1698415511.1939678,21010.0
1698415511.2143977,21009.0
1698415511.2348275,21016.0
1698415511.2552576,21024.0
1698415511.2756875,21023.0
1698415511.2961175,21025.0
1698415511.3165474,21031.0
1698415511.3369772,21026.0
1698415511.3574073,21028.0
1698415511.3778372,21035.0
1698415511.398267,21041.0
1698415511.418697,21039.0
1698415511.439127,21042.0
1698415511.4595568,21037.0
1698415511.479987,21040.0
1698415511.5004168,21031.0
1698415511.5208466,21023.0
1698415511.5412767,21020.0
1698415511.5617063,21014.0
1698415511.5821364,21011.0
1698415511.6025665,21006.0
1698415511.622996,21005.0
1698415511.643426,20999.0
1698415511.663856,20994.0
1698415511.6842859,20995.0
1698415511.7047157,20989.0
1698415511.7251458,20986.0
1698415511.7455757,20984.0
1698415511.7660055,20980.0
1698415511.7864356,20977.0
1698415511.8068655,20982.0
1698415511.8272953,20981.0
1698415511.8477252,20983.0
1698415511.8681552,20976.0
1698415511.888585,20981.0
1698415511.9090152,20980.0
1698415511.929445,20981.0
1698415511.949875,20989.0
1698415511.970305,20992.0
1698415511.9907348,20988.0
1698415512.011165,20993.0
1698415512.0315948,20993.0
1698415512.0520248,20998.0
1698415512.0724547,20996.0
1698415512.0928845,21000.0
1698415512.1133144,21007.0
1698415512.1337445,21004.0
1698415512.1541743,21007.0
1698415512.1746042,21013.0
1698415512.1950343,21022.0
1698415512.215464,21027.0
1698415512.235894,21035.0
1698415512.256324,21036.0
1698415512.276754,21041.0
1698415512.2971835,21041.0
1698415512.3176136,21039.0
1698415512.3380437,21036.0
1698415512.3584733,21037.0
1698415512.3789034,21044.0
1698415512.3993332,21038.0
1698415512.419763,21042.0
1698415512.4401932,21043.0
1698415512.460623,21037.0
1698415512.4810529,21029.0
1698415512.501483,21032.0
1698415512.5219128,21023.0
1698415512.5423427,21021.0
1698415512.5627728,21022.0
1698415512.5832026,21011.0
1698415512.6036325,21012.0
1698415512.6240625,21005.0
1698415512.6444924,21007.0
1698415512.6649225,20999.0
1698415512.6853523,21006.0
1698415512.7057822,21006.0
1698415512.7262123,21003.0
1698415512.746642,21011.0
1698415512.767072,21015.0
1698415512.787502,21021.0
1698415512.807932,21023.0
1698415512.8283617,21028.0
1698415512.8487916,21026.0
1698415512.8692217,21027.0
1698415512.8896515,21038.0
1698415512.9100816,21046.0
1698415512.9305117,21044.0
1698415512.9509413,21050.0
1698415512.9713712,21043.0
1698415512.991801,21056.0
1698415513.0122309,21058.0
1698415513.032661,21052.0
1698415513.0530908,21058.0
1698415513.0735207,21057.0
1698415513.0939507,21068.0
1698415513.1143806,21061.0
1698415513.1348102,21058.0
1698415513.1552405,21061.0
1698415513.1756704,21052.0
1698415513.1961002,21052.0
1698415513.2165306,21046.0
1698415513.2369602,21049.0
1698415513.2573898,21049.0
1698415513.27782,21048.0
1698415513.29825,21052.0
1698415513.31868,21054.0
1698415513.3391101,21055.0
1698415513.3595397,21050.0
1698415513.3799696,21051.0
1698415513.4003997,21057.0
1698415513.4208295,21060.0
1698415513.4412596,21058.0
1698415513.4616897,21057.0
1698415513.4821193,21056.0
1698415513.5025494,21059.0
1698415513.5229793,21061.0
1698415513.543409,21060.0
1698415513.5638392,21063.0
1698415513.584269,21052.0
1698415513.604699,21052.0
1698415513.625129,21057.0
1698415513.6455586,21053.0
1698415513.6659882,21052.0
1698415513.6864185,21046.0
1698415513.7068484,21048.0
1698415513.7272782,21044.0
1698415513.7477086,21042.0
1698415513.7681382,21047.0
1698415513.788568,21049.0
1698415513.808998,21045.0
1698415513.829428,21050.0
1698415513.8498578,21050.0
1698415513.870288,21056.0
1698415513.8907177,21058.0
1698415513.9111476,21067.0
1698415513.9315777,21066.0
1698415513.9520075,21062.0
1698415513.9724374,21061.0
1698415513.9928675,21059.0
1698415514.0132973,21058.0
1698415514.0337274,21052.0
1698415514.0541573,21055.0
1698415514.074587,21048.0
1698415514.0950172,21044.0
1698415514.115447,21046.0
1698415514.135877,21046.0
1698415514.156307,21037.0
1698415514.1767368,21043.0
1698415514.1971667,21046.0
1698415514.2175968,21046.0
1698415514.2380266,21058.0
1698415514.2584562,21048.0
1698415514.2788866,21053.0
1698415514.2993164,21058.0
1698415514.319746,21059.0
1698415514.340176,21050.0
1698415514.360606,21065.0
1698415514.3810358,21068.0
1698415514.401466,21066.0
1698415514.4218957,21074.0
1698415514.4423256,21083.0
1698415514.4627557,21080.0
1698415514.4831855,21081.0
1698415514.5036154,21083.0
1698415514.5240455,21083.0
1698415514.544475,21083.0
1698415514.5649052,21087.0
1698415514.5853353,21086.0
1698415514.605765,21085.0
1698415514.626195,21091.0
1698415514.646625,21102.0
1698415514.667055,21105.0
1698415514.687485,21104.0
1698415514.7079148,21107.0
1698415514.7283447,21114.0
1698415514.748775,21115.0
1698415514.7692046,21116.0
1698415514.7896345,21121.0
1698415514.8100646,21120.0
1698415514.8304944,21120.0
1698415514.8509243,21125.0
1698415514.8713543,21118.0
1698415514.8917842,21121.0
1698415514.912214,21126.0
1698415514.9326441,21120.0
1698415514.953074,21118.0
1698415514.9735038,21123.0
1698415514.9939337,21123.0
1698415515.0143635,21125.0
1698415515.0347936,21127.0
1698415515.0552235,21128.0
1698415515.0756533,21128.0
1698415515.0960832,21125.0
1698415515.1165133,21128.0
1698415515.136943,21134.0
1698415515.157373,21137.0
1698415515.177803,21135.0
1698415515.198233,21133.0
1698415515.2186627,21138.0
1698415515.2390928,21139.0
1698415515.2595227,21139.0
1698415515.2799525,21146.0
1698415515.3003826,21147.0
1698415515.3208125,21153.0
1698415515.3412423,21156.0
1698415515.3616724,21154.0
1698415515.3821023,21162.0
1698415515.4025323,21162.0
1698415515.4229622,21161.0
1698415515.443392,21172.0
1698415515.4638221,21173.0
1698415515.484252,21174.0
1698415515.5046818,21181.0
1698415515.525112,21178.0
1698415515.5455415,21180.0
1698415515.5659716,21181.0
1698415515.5864017,21177.0
1698415515.6068316,21178.0
1698415515.6272616,21170.0
1698415515.6476915,21165.0
1698415515.668121,21162.0
1698415515.688551,21153.0
1698415515.708981,21149.0
1698415515.729411,21143.0
1698415515.7498407,21139.0
1698415515.7702708,21137.0
1698415515.7907007,21136.0
1698415515.8111305,21128.0
1698415515.8315604,21136.0
1698415515.8519905,21133.0
1698415515.8724203,21136.0
1698415515.8928504,21130.0
1698415515.9132805,21132.0
1698415515.93371,21136.0
1698415515.95414,21133.0
1698415515.97457,21134.0
1698415515.995,21141.0
1698415516.01543,21135.0
1698415516.03586,21136.0
1698415516.05629,21132.0
1698415516.0767195,21135.0
1698415516.0971496,21124.0
1698415516.1175797,21129.0
1698415516.1380095,21130.0
1698415516.1584396,21135.0
1698415516.1788695,21132.0
1698415516.1992993,21132.0
1698415516.2197292,21137.0
1698415516.2401593,21132.0
1698415516.2605891,21135.0
1698415516.281019,21137.0
1698415516.301449,21140.0
1698415516.321879,21144.0
1698415516.3423085,21143.0
1698415516.3627384,21145.0
1698415516.3831685,21144.0
1698415516.4035983,21146.0
1698415516.4240284,21145.0
1698415516.4444585,21136.0
1698415516.464888,21142.0
1698415516.4853182,21140.0
1698415516.505748,21132.0
1698415516.526178,21137.0
1698415516.546608,21127.0
1698415516.5670378,21125.0
1698415516.5874677,21120.0
1698415516.6078978,21118.0
1698415516.6283276,21118.0
1698415516.6487575,21113.0
1698415516.6691875,21110.0
1698415516.6896174,21109.0
1698415516.7100472,21103.0
1698415516.7304773,21098.0
1698415516.7509072,21104.0
1698415516.7713373,21094.0
1698415516.7917671,21098.0
1698415516.812197,21098.0
1698415516.832627,21095.0
1698415516.853057,21095.0
1698415516.8734868,21096.0
1698415516.8939168,21091.0
1698415516.9143467,21097.0
1698415516.9347765,21103.0
1698415516.9552064,21099.0
1698415516.9756365,21109.0
1698415516.9960663,21110.0
1698415517.0164962,21109.0
1698415517.036926,21118.0
1698415517.0573559,21120.0
1698415517.077786,21126.0
1698415517.0982158,21124.0
1698415517.1186457,21127.0
1698415517.1390758,21131.0
1698415517.1595056,21130.0
1698415517.1799355,21128.0
1698415517.2003655,21119.0
1698415517.2207954,21117.0
1698415517.241225,21113.0
1698415517.2616553,21116.0
1698415517.2820852,21113.0
1698415517.302515,21109.0
1698415517.322945,21108.0
1698415517.343375,21107.0
1698415517.3638048,21102.0
1698415517.384235,21103.0
1698415517.4046648,21107.0
1698415517.4250948,21102.0
1698415517.445525,21109.0
1698415517.4659545,21114.0
1698415517.4863846,21107.0
1698415517.5068145,21117.0
1698415517.5272443,21113.0
1698415517.5476744,21119.0
1698415517.5681043,21128.0
1698415517.588534,21130.0
1698415517.6089642,21129.0
1698415517.629394,21138.0
1698415517.649824,21143.0
1698415517.670254,21149.0
1698415517.6906836,21149.0
1698415517.7111135,21161.0
1698415517.7315438,21153.0
1698415517.7519734,21161.0
1698415517.7724032,21169.0
1698415517.7928333,21165.0
1698415517.8132632,21168.0
1698415517.833693,21163.0
1698415517.854123,21168.0
1698415517.874553,21170.0
1698415517.8949828,21171.0
1698415517.915413,21169.0
1698415517.9358428,21176.0
1698415517.9562726,21175.0
1698415517.9767027,21172.0
1698415517.9971325,21163.0
1698415518.0175624,21166.0
1698415518.0379925,21157.0
1698415518.0584223,21154.0
1698415518.0788522,21144.0
1698415518.0992823,21142.0
1698415518.119712,21134.0
1698415518.1401422,21131.0
1698415518.160572,21120.0
1698415518.181002,21116.0
1698415518.201432,21117.0
1698415518.2218618,21110.0
1698415518.2422915,21112.0
1698415518.2627218,21108.0
1698415518.2831516,21108.0
1698415518.3035815,21106.0
1698415518.3240118,21106.0
1698415518.3444414,21093.0
1698415518.364871,21099.0
1698415518.385301,21095.0
1698415518.405731,21093.0
1698415518.4261608,21096.0
1698415518.446591,21097.0
1698415518.4670208,21097.0
1698415518.4874506,21096.0
1698415518.5078807,21095.0
1698415518.5283103,21094.0
1698415518.5487404,21097.0
1698415518.5691705,21099.0
1698415518.5896003,21093.0
1698415518.6100304,21094.0
1698415518.6304603,21098.0
1698415518.6508899,21104.0
1698415518.67132,21108.0
1698415518.69175,21109.0
1698415518.71218,21111.0
1698415518.7326102,21115.0
1698415518.7530398,21121.0
1698415518.7734694,21129.0
1698415518.7938998,21123.0
1698415518.8143296,21123.0
1698415518.8347595,21126.0
1698415518.8551898,21122.0
1698415518.8756194,21120.0
1698415518.8960493,21118.0
1698415518.9164793,21114.0
1698415518.9369092,21114.0
1698415518.957339,21114.0
1698415518.9777691,21113.0
1698415518.998199,21119.0
1698415519.0186288,21115.0
1698415519.0390587,21122.0
1698415519.0594883,21124.0
1698415519.0799184,21124.0
1698415519.1003485,21137.0
1698415519.1207783,21131.0
1698415519.1412084,21142.0
1698415519.1616383,21144.0
1698415519.182068,21149.0
1698415519.202498,21153.0
1698415519.222928,21161.0
1698415519.243358,21160.0
1698415519.2637877,21165.0
1698415519.2842178,21167.0
1698415519.3046477,21172.0
1698415519.3250775,21180.0
1698415519.3455076,21176.0
1698415519.3659375,21176.0
1698415519.3863673,21181.0
1698415519.4067974,21180.0
1698415519.4272273,21177.0
1698415519.447657,21185.0
1698415519.4680872,21185.0
1698415519.488517,21187.0
1698415519.5089471,21182.0
1698415519.529377,21176.0
1698415519.5498068,21172.0
1698415519.570237,21167.0
1698415519.5906668,21153.0
1698415519.6110966,21147.0
1698415519.6315267,21132.0
1698415519.6519563,21125.0
1698415519.6723864,21114.0
1698415519.6928165,21117.0
1698415519.713246,21108.0
1698415519.733676,21095.0
1698415519.754106,21090.0
1698415519.774536,21092.0
1698415519.7949657,21083.0
1698415519.8153958,21082.0
1698415519.8358257,21082.0
1698415519.8562555,21078.0
1698415519.8766856,21076.0
1698415519.8971155,21066.0
1698415519.9175453,21067.0
1698415519.9379752,21060.0
1698415519.9584053,21061.0
1698415519.978835,21059.0
1698415519.9992652,21058.0
1698415520.019695,21053.0
1698415520.040125,21053.0
1698415520.060555,21057.0
1698415520.0809848,21054.0
1698415520.1014147,21054.0
1698415520.1218448,21059.0
1698415520.1422749,21053.0
1698415520.1627047,21059.0
1698415520.1831346,21065.0
1698415520.2035644,21065.0
1698415520.2239945,21070.0
1698415520.2444243,21067.0
1698415520.2648542,21064.0
1698415520.2852843,21060.0
1698415520.3057141,21055.0
1698415520.326144,21052.0
1698415520.346574,21050.0
1698415520.367004,21044.0
1698415520.3874335,21026.0
1698415520.4078636,21015.0
1698415520.4282937,21020.0
1698415520.4487233,21007.0
1698415520.4691534,21001.0
1698415520.4895833,20992.0
1698415520.510013,20986.0
1698415520.5304432,20977.0
1698415520.550873,20975.0
1698415520.571303,20979.0
1698415520.591733,20980.0
1698415520.6121628,20973.0
1698415520.6325927,20984.0
1698415520.6530228,20988.0
1698415520.6734526,20990.0
1698415520.6938825,20997.0
1698415520.7143126,21005.0
1698415520.7347424,21010.0
1698415520.7551723,21018.0
1698415520.7756023,21019.0
1698415520.7960322,21027.0
1698415520.816462,21029.0
1698415520.8368921,21039.0
1698415520.857322,21047.0
1698415520.877752,21056.0
1698415520.898182,21068.0
1698415520.9186118,21069.0
1698415520.9390416,21080.0
1698415520.9594717,21088.0
1698415520.9799016,21098.0
1698415521.0003316,21106.0
1698415521.0207617,21118.0
1698415521.0411913,21129.0
1698415521.0616212,21140.0
1698415521.082051,21153.0
1698415521.102481,21164.0
1698415521.122911,21173.0
1698415521.1433408,21176.0
1698415521.1637707,21189.0
1698415521.1842008,21194.0
1698415521.2046306,21206.0
1698415521.2250602,21227.0
1698415521.2454906,21243.0
1698415521.2659204,21254.0
1698415521.2863503,21256.0
1698415521.3067806,21262.0
1698415521.3272102,21271.0
1698415521.3476398,21276.0
1698415521.3680701,21280.0
1698415521.3885,21283.0
1698415521.4089298,21289.0
1698415521.4293602,21289.0
1698415521.4497898,21292.0
1698415521.4702194,21294.0
1698415521.4906497,21301.0
1698415521.5110795,21296.0
1698415521.5315096,21303.0
1698415521.5519397,21311.0
1698415521.5723693,21310.0
1698415521.5927994,21314.0
1698415521.6132293,21316.0
1698415521.6336591,21322.0
1698415521.6540892,21315.0
1698415521.674519,21323.0
1698415521.694949,21319.0
1698415521.715379,21322.0
1698415521.7358086,21331.0
1698415521.7562382,21333.0
1698415521.7766685,21341.0
1698415521.7970984,21339.0
1698415521.8175282,21346.0
1698415521.8379586,21343.0
1698415521.8583882,21356.0
1698415521.878818,21350.0
1698415521.8992481,21358.0
1698415521.919678,21359.0
1698415521.9401078,21365.0
1698415521.960538,21372.0
1698415521.9809678,21377.0
1698415522.0013976,21376.0
1698415522.0218277,21378.0
1698415522.0422575,21383.0
1698415522.0626874,21394.0
1698415522.0831175,21388.0
1698415522.1035473,21394.0
1698415522.1239772,21400.0
1698415522.1444073,21398.0
1698415522.1648371,21395.0
1698415522.185267,21395.0
1698415522.205697,21393.0
1698415522.226127,21393.0
1698415522.246557,21393.0
1698415522.2669868,21389.0
1698415522.2874167,21391.0
1698415522.3078468,21388.0
1698415522.3282766,21389.0
1698415522.3487062,21389.0
1698415522.3691366,21388.0
1698415522.3895664,21389.0
1698415522.409996,21396.0
1698415522.4304261,21392.0
1698415522.450856,21398.0
1698415522.4712858,21392.0
1698415522.491716,21392.0
1698415522.5121458,21397.0
1698415522.5325756,21393.0
1698415522.5530057,21397.0
1698415522.5734355,21394.0
1698415522.5938654,21399.0
1698415522.6142955,21399.0
1698415522.634725,21397.0
1698415522.6551552,21402.0
1698415522.6755853,21403.0
1698415522.6960151,21411.0
1698415522.716445,21404.0
1698415522.736875,21414.0
1698415522.757305,21415.0
1698415522.7777348,21418.0
1698415522.7981648,21425.0
1698415522.8185947,21428.0
1698415522.839025,21432.0
1698415522.8594546,21432.0
1698415522.8798845,21429.0
1698415522.9003146,21432.0
1698415522.9207444,21427.0
1698415522.9411743,21426.0
1698415522.9616044,21423.0
1698415522.9820342,21421.0
1698415523.002464,21420.0
1698415523.0228941,21420.0
1698415523.043324,21415.0
1698415523.0637538,21417.0
1698415523.0841837,21414.0
1698415523.1046135,21417.0
1698415523.1250436,21416.0
1698415523.1454735,21412.0
1698415523.1659033,21414.0
1698415523.1863332,21415.0
1698415523.2067633,21411.0
1698415523.227193,21410.0
1698415523.247623,21410.0
1698415523.268053,21405.0
1698415523.288483,21408.0
1698415523.3089128,21412.0
1698415523.3293428,21421.0
1698415523.3497727,21436.0
1698415523.3702025,21465.0
1698415523.3906326,21476.0
1698415523.4110625,21500.0
1698415523.4314923,21527.0
1698415523.4519224,21545.0
1698415523.4723523,21556.0
1698415523.492782,21572.0
1698415523.5132122,21592.0
1698415523.533642,21606.0
1698415523.554072,21616.0
1698415523.574502,21626.0
1698415523.5949318,21635.0
1698415523.615362,21640.0
1698415523.6357915,21639.0
1698415523.6562216,21630.0
1698415523.6766517,21625.0
1698415523.6970816,21616.0
1698415523.7175117,21607.0
1698415523.7379415,21601.0
1698415523.758371,21595.0
1698415523.778801,21587.0
1698415523.799231,21580.0
1698415523.819661,21576.0
1698415523.8400908,21565.0
1698415523.8605208,21556.0
1698415523.8809507,21550.0
1698415523.9013805,21547.0
1698415523.9218104,21538.0
1698415523.9422405,21534.0
1698415523.9626703,21533.0
1698415523.9831004,21524.0
1698415524.0035305,21521.0
1698415524.02396,21515.0
1698415524.04439,21515.0
1698415524.06482,21526.0
1698415524.08525,21536.0
1698415524.10568,21545.0
1698415524.12611,21562.0
1698415524.1465397,21581.0
1698415524.1669695,21585.0
1698415524.1873996,21600.0
1698415524.2078295,21609.0
1698415524.2282596,21630.0
1698415524.2486897,21632.0
1698415524.2691195,21655.0
1698415524.2895494,21661.0
1698415524.3099792,21673.0
1698415524.3304093,21685.0
1698415524.3508391,21680.0
1698415524.371269,21684.0
1698415524.391699,21693.0
1698415524.412129,21691.0
1698415524.4325585,21702.0
1698415524.4529884,21693.0
1698415524.4734185,21692.0
1698415524.4938483,21685.0
1698415524.5142784,21683.0
1698415524.5347085,21676.0
1698415524.555138,21676.0
1698415524.5755682,21671.0
1698415524.595998,21664.0
1698415524.616428,21653.0
1698415524.636858,21648.0
1698415524.6572878,21640.0
1698415524.6777177,21637.0
1698415524.6981478,21630.0
1698415524.7185776,21621.0
1698415524.7390075,21614.0
1698415524.7594376,21611.0
1698415524.7798674,21608.0
1698415524.8002973,21601.0
1698415524.8207273,21602.0
1698415524.8411572,21599.0
1698415524.861587,21601.0
1698415524.8820171,21594.0
1698415524.902447,21597.0
1698415524.9228768,21606.0
1698415524.943307,21599.0
1698415524.9637368,21590.0
1698415524.9841669,21599.0
1698415525.0045967,21602.0
1698415525.0250266,21615.0
1698415525.0454564,21609.0
1698415525.0658865,21614.0
1698415525.0863163,21608.0
1698415525.1067462,21610.0
1698415525.127176,21606.0
1698415525.147606,21604.0
1698415525.168036,21607.0
1698415525.1884658,21605.0
1698415525.2088957,21605.0
1698415525.2293258,21596.0
1698415525.2497556,21600.0
1698415525.2701855,21593.0
1698415525.2906156,21579.0
1698415525.3110454,21574.0
1698415525.331475,21561.0
1698415525.3519053,21557.0
1698415525.3723352,21554.0
1698415525.392765,21550.0
1698415525.4131951,21549.0
1698415525.433625,21554.0
1698415525.4540548,21549.0
1698415525.474485,21546.0
1698415525.4949148,21548.0
1698415525.5153446,21541.0
1698415525.535775,21537.0
1698415525.5562046,21540.0
1698415525.5766344,21539.0
1698415525.5970645,21532.0
1698415525.6174943,21526.0
1698415525.6379244,21527.0
1698415525.6583543,21515.0
1698415525.6787841,21515.0
1698415525.6992142,21508.0
1698415525.719644,21518.0
1698415525.740074,21511.0
1698415525.760504,21509.0
1698415525.7809336,21509.0
1698415525.8013635,21511.0
1698415525.8217938,21514.0
1698415525.8422234,21517.0
1698415525.8626533,21512.0
1698415525.8830833,21518.0
1698415525.9035132,21516.0
1698415525.923943,21523.0
1698415525.9443731,21525.0
1698415525.964803,21522.0
1698415525.9852328,21521.0
1698415526.005663,21522.0
1698415526.0260928,21521.0
1698415526.0465226,21521.0
1698415526.0669527,21524.0
1698415526.0873826,21524.0
1698415526.1078124,21524.0
1698415526.1282425,21524.0
1698415526.1486723,21527.0
1698415526.1691022,21532.0
1698415526.1895323,21534.0
1698415526.2099621,21535.0
1698415526.230392,21538.0
1698415526.250822,21537.0
1698415526.271252,21541.0
1698415526.2916818,21543.0
1698415526.3121119,21543.0
1698415526.3325415,21547.0
1698415526.3529718,21547.0
1698415526.3734016,21547.0
1698415526.3938315,21549.0
1698415526.4142618,21545.0
1698415526.4346914,21548.0
1698415526.455121,21552.0
1698415526.4755511,21554.0
1698415526.495981,21554.0
1698415526.5164108,21548.0
1698415526.536841,21554.0
1698415526.5572708,21555.0
1698415526.5777006,21555.0
1698415526.5981307,21555.0
1698415526.6185603,21556.0
1698415526.6389904,21559.0
1698415526.6594205,21569.0
1698415526.6798503,21572.0
1698415526.7002804,21578.0
1698415526.7207103,21579.0
1698415526.74114,21582.0
1698415526.76157,21581.0
1698415526.782,21578.0
1698415526.8024135,21576.0
1698415526.8228273,21576.0
1698415526.843241,21572.0
1698415526.8636544,21563.0
1698415526.884068,21559.0
1698415526.904482,21558.0
1698415526.9248955,21555.0
1698415526.9453092,21545.0
1698415526.9657228,21542.0
1698415526.9861364,21534.0
1698415527.00655,21527.0
1698415527.0269637,21527.0
1698415527.047377,21525.0
1698415527.067791,21526.0
1698415527.0882046,21526.0
1698415527.1086183,21524.0
1698415527.1290314,21517.0
1698415527.1494455,21521.0
1698415527.1698592,21515.0
1698415527.1902728,21524.0
1698415527.2106862,21516.0
1698415527.2311,21523.0
1698415527.2515137,21508.0
1698415527.2719274,21506.0
1698415527.2923408,21499.0
1698415527.3127546,21491.0
1698415527.3331683,21484.0
1698415527.353582,21487.0
1698415527.3739953,21482.0
1698415527.3944092,21485.0
1698415527.4148228,21484.0
1698415527.4352362,21484.0
1698415527.4556499,21481.0
1698415527.4760637,21501.0
1698415527.4964774,21493.0
1698415527.5168908,21493.0
1698415527.5373044,21500.0
1698415527.5577185,21498.0
1698415527.578132,21493.0
1698415527.5985453,21494.0
1698415527.618959,21491.0
1698415527.6393728,21480.0
1698415527.6597865,21472.0
1698415527.6801999,21467.0
1698415527.7006135,21455.0
1698415527.7210271,21450.0
1698415527.741441,21445.0
1698415527.7618544,21437.0
1698415527.782268,21436.0
1698415527.802682,21425.0
1698415527.8230958,21427.0
1698415527.843509,21416.0
1698415527.8639226,21416.0
1698415527.8843365,21418.0
1698415527.90475,21421.0
1698415527.9251635,21425.0
1698415527.9455774,21433.0
1698415527.965991,21433.0
1698415527.9864042,21438.0
1698415528.006818,21443.0
1698415528.027232,21443.0
1698415528.0476456,21440.0
1698415528.068059,21444.0
1698415528.0884728,21438.0
1698415528.1088865,21447.0
1698415528.1293,21444.0
1698415528.1497135,21442.0
1698415528.1701272,21438.0
1698415528.190541,21438.0
1698415528.2109547,21444.0
1698415528.231368,21436.0
1698415528.2517815,21442.0
1698415528.2721956,21438.0
1698415528.2926092,21436.0
1698415528.3130226,21440.0
1698415528.3334363,21448.0
1698415528.3538501,21440.0
1698415528.3742638,21449.0
1698415528.3946772,21445.0
1698415528.4150908,21445.0
1698415528.4355047,21437.0
1698415528.4559183,21431.0
1698415528.4763317,21421.0
1698415528.4967453,21415.0
1698415528.5171592,21415.0
1698415528.5375729,21408.0
1698415528.5579863,21403.0
1698415528.5784,21394.0
1698415528.5988138,21387.0
1698415528.6192274,21389.0
1698415528.6396408,21383.0
1698415528.6600544,21384.0
1698415528.6804686,21378.0
1698415528.7008817,21380.0
1698415528.7212954,21377.0
1698415528.741709,21373.0
1698415528.7621229,21376.0
1698415528.7825363,21367.0
1698415528.80295,21367.0
1698415528.8233635,21369.0
1698415528.8437772,21369.0
1698415528.8641908,21367.0
1698415528.8846045,21368.0
1698415528.905018,21370.0
1698415528.925432,21370.0
1698415528.9458456,21367.0
1698415528.966259,21363.0
1698415528.9866726,21364.0
