ts,ppg
1698673075001.3103,12313.0
1698673075021.7825,12330.0
1698673075042.255,12354.0
1698673075062.7273,12384.0
1698673075083.1997,12406.0
1698673075103.672,12420.0
1698673075124.1443,12437.0
1698673075144.6167,12455.0
1698673075165.089,12464.0
1698673075185.5613,12473.0
1698673075206.0337,12478.0
1698673075226.506,12483.0
1698673075246.9785,12486.0
1698673075267.4507,12498.0
1698673075287.923,12503.0
1698673075308.3955,12516.0
1698673075328.868,12531.0
1698673075349.34,12545.0
1698673075369.8125,12565.0
1698673075390.285,12580.0
1698673075410.757,12596.0
1698673075431.2295,12610.0
1698673075451.702,12625.0
1698673075472.1743,12623.0
1698673075492.6465,12655.0
1698673075513.119,12667.0
1698673075533.5913,12673.0
1698673075554.0637,12690.0
1698673075574.536,12700.0
1698673075595.0083,12716.0
1698673075615.4807,12724.0
1698673075635.9531,12737.0
1698673075656.4253,12749.0
1698673075676.8977,12759.0
1698673075697.37,12769.0
1698673075717.8423,12779.0
1698673075738.3147,12788.0
1698673075758.787,12793.0
1698673075779.2595,12803.0
1698673075799.732,12810.0
1698673075820.204,12817.0
1698673075840.6765,12820.0
1698673075861.149,12824.0
1698673075881.621,12830.0
1698673075902.0935,12836.0
1698673075922.566,12842.0
1698673075943.0383,12851.0
1698673075963.5105,12858.0
1698673075983.983,12870.0
1698673076004.455,12881.0
1698673076024.9275,12893.0
1698673076045.4,12900.0
1698673076065.8723,12911.0
1698673076086.3447,12928.0
1698673076106.8171,12931.0
1698673076127.2893,12942.0
1698673076147.7617,12949.0
1698673076168.234,12962.0
1698673076188.7063,12964.0
1698673076209.1787,12970.0
1698673076229.6511,12977.0
1698673076250.1235,12987.0
1698673076270.596,12995.0
1698673076291.068,13004.0
1698673076311.5403,13009.0
1698673076332.013,13018.0
1698673076352.485,13011.0
1698673076372.9575,13035.0
1698673076393.43,13044.0
1698673076413.9023,13052.0
1698673076434.3745,13059.0
1698673076454.847,13068.0
1698673076475.319,13076.0
1698673076495.7915,13081.0
1698673076516.264,13091.0
1698673076536.7363,13098.0
1698673076557.2087,13105.0
1698673076577.6812,13111.0
1698673076598.1533,13102.0
1698673076618.6255,13124.0
1698673076639.098,13130.0
1698673076659.5706,13131.0
1698673076680.0427,13139.0
1698673076700.5151,13140.0
1698673076720.9875,13147.0
1698673076741.46,13154.0
1698673076761.932,13158.0
1698673076782.4043,13163.0
1698673076802.877,13170.0
1698673076823.349,13181.0
1698673076843.8215,13186.0
1698673076864.294,13189.0
1698673076884.7664,13191.0
1698673076905.2383,13194.0
1698673076925.711,13199.0
1698673076946.183,13199.0
1698673076966.6558,13199.0
1698673076987.128,13205.0
1698673077007.6003,13219.0
1698673077028.0728,13222.0
1698673077048.5452,13214.0
1698673077069.017,13250.0
1698673077089.4895,13259.0
1698673077109.9622,13271.0
1698673077130.4346,13279.0
1698673077150.9067,13270.0
1698673077171.3792,13291.0
1698673077191.8516,13292.0
1698673077212.324,13290.0
1698673077232.796,13299.0
1698673077253.2686,13280.0
1698673077273.741,13308.0
1698673077294.2134,13318.0
1698673077314.6855,13329.0
1698673077335.158,13332.0
1698673077355.6304,13343.0
1698673077376.1023,13352.0
1698673077396.575,13359.0
1698673077417.0474,13366.0
1698673077437.5198,13379.0
1698673077457.992,13388.0
1698673077478.4644,13389.0
1698673077498.9368,13401.0
1698673077519.4092,13409.0
1698673077539.881,13416.0
1698673077560.3538,13426.0
1698673077580.8262,13431.0
1698673077601.2986,13438.0
1698673077621.7708,13451.0
1698673077642.2432,13457.0
1698673077662.7156,13467.0
1698673077683.188,13471.0
1698673077703.6602,13480.0
1698673077724.1326,13487.0
1698673077744.605,13492.0
1698673077765.0774,13481.0
1698673077785.5496,13503.0
1698673077806.022,13511.0
1698673077826.4944,13522.0
1698673077846.9666,13508.0
1698673077867.439,13534.0
1698673077887.9114,13541.0
1698673077908.3838,13546.0
1698673077928.856,13546.0
1698673077949.3284,13550.0
1698673077969.8008,13551.0
1698673077990.2732,13553.0
1698673078010.7454,13552.0
1698673078031.2178,13536.0
1698673078051.6902,13561.0
1698673078072.1626,13558.0
1698673078092.6348,13563.0
1698673078113.1072,13563.0
1698673078133.5796,13564.0
1698673078154.052,13571.0
1698673078174.5242,13572.0
1698673078194.9966,13574.0
1698673078215.469,13576.0
1698673078235.9414,13583.0
1698673078256.4136,13593.0
1698673078276.886,13583.0
1698673078297.3584,13611.0
1698673078317.8306,13621.0
1698673078338.303,13622.0
1698673078358.7754,13630.0
1698673078379.2478,13630.0
1698673078399.72,13635.0
1698673078420.1924,13646.0
1698673078440.6648,13647.0
1698673078461.1372,13636.0
1698673078481.6094,13659.0
1698673078502.0818,13666.0
1698673078522.5542,13672.0
1698673078543.0266,13679.0
1698673078563.4988,13685.0
1698673078583.9712,13689.0
1698673078604.4436,13691.0
1698673078624.916,13699.0
1698673078645.3882,13703.0
1698673078665.8606,13707.0
1698673078686.333,13712.0
1698673078706.8054,13710.0
1698673078727.2776,13719.0
1698673078747.75,13725.0
1698673078768.2224,13729.0
1698673078788.6946,13734.0
1698673078809.167,13737.0
1698673078829.6394,13721.0
1698673078850.1118,13745.0
1698673078870.584,13729.0
1698673078891.0564,13751.0
1698673078911.5288,13760.0
1698673078932.0012,13760.0
1698673078952.4734,13766.0
1698673078972.9458,13773.0
1698673078993.4182,13772.0
1698673079013.8906,13777.0
1698673079034.3628,13782.0
1698673079054.8352,13784.0
1698673079075.3076,13763.0
1698673079095.78,13790.0
1698673079116.2522,13790.0
1698673079136.7246,13794.0
1698673079157.197,13796.0
1698673079177.6694,13803.0
1698673079198.1416,13804.0
1698673079218.614,13806.0
1698673079239.0864,13809.0
1698673079259.5586,13815.0
1698673079280.031,13818.0
1698673079300.5034,13818.0
1698673079320.9758,13822.0
1698673079341.448,13830.0
1698673079361.9204,13835.0
1698673079382.3928,13822.0
1698673079402.8652,13830.0
1698673079423.3374,13854.0
1698673079443.8098,13860.0
1698673079464.2822,13871.0
1698673079484.7546,13880.0
1698673079505.2268,13889.0
1698673079525.6992,13898.0
1698673079546.1716,13907.0
1698673079566.644,13920.0
1698673079587.1162,13930.0
1698673079607.5886,13938.0
1698673079628.061,13945.0
1698673079648.5334,13955.0
1698673079669.0056,13959.0
1698673079689.478,13968.0
1698673079709.9504,13957.0
1698673079730.4226,13982.0
1698673079750.895,13990.0
1698673079771.3674,13992.0
1698673079791.8398,14000.0
1698673079812.312,14005.0
1698673079832.7844,14011.0
1698673079853.2568,14015.0
1698673079873.7292,14023.0
1698673079894.2014,14028.0
1698673079914.6738,14034.0
1698673079935.1462,14041.0
1698673079955.619,14046.0
1698673079976.0908,14049.0
1698673079996.5632,14056.0
1698673080017.0356,14067.0
1698673080037.508,14072.0
1698673080057.9802,14078.0
1698673080078.4526,14082.0
1698673080098.925,14089.0
1698673080119.3977,14080.0
1698673080139.8696,14102.0
1698673080160.342,14111.0
1698673080180.8145,14113.0
1698673080201.2866,14116.0
1698673080221.759,14126.0
1698673080242.2314,14128.0
1698673080262.704,14132.0
1698673080283.176,14138.0
1698673080303.6484,14141.0
1698673080324.1208,14144.0
1698673080344.5933,14149.0
1698673080365.0654,14152.0
1698673080385.5378,14154.0
1698673080406.0105,14151.0
1698673080426.483,14157.0
1698673080446.9548,14151.0
1698673080467.4272,14152.0
1698673080487.8997,14162.0
1698673080508.372,14162.0
1698673080528.8442,14161.0
1698673080549.317,14165.0
1698673080569.789,14166.0
1698673080590.2617,14173.0
1698673080610.7336,14168.0
1698673080631.206,14175.0
1698673080651.6785,14173.0
1698673080672.151,14176.0
1698673080692.623,14176.0
1698673080713.0957,14180.0
1698673080733.568,14177.0
1698673080754.04,14177.0
1698673080774.5125,14182.0
1698673080794.9849,14178.0
1698673080815.4573,14183.0
1698673080835.9294,14186.0
1698673080856.402,14188.0
1698673080876.8745,14188.0
1698673080897.3467,14186.0
1698673080917.8188,14195.0
1698673080938.2913,14199.0
1698673080958.7637,14215.0
1698673080979.236,14225.0
1698673080999.7085,14231.0
1698673081020.181,14243.0
1698673081040.653,14245.0
1698673081061.1255,14253.0
1698673081081.5977,14253.0
1698673081102.07,14248.0
1698673081122.5425,14239.0
1698673081143.015,14239.0
1698673081163.487,14229.0
1698673081183.9597,14222.0
1698673081204.432,14223.0
1698673081224.904,14222.0
1698673081245.3765,14223.0
1698673081265.8489,14225.0
1698673081286.3213,14228.0
1698673081306.7937,14236.0
1698673081327.266,14233.0
1698673081347.7383,14230.0
1698673081368.2107,14234.0
1698673081388.6829,14219.0
1698673081409.1553,14237.0
1698673081429.6277,14240.0
1698673081450.1,14233.0
1698673081470.5725,14236.0
1698673081491.045,14232.0
1698673081511.517,14233.0
1698673081531.9895,14213.0
1698673081552.4617,14239.0
1698673081572.934,14263.0
1698673081593.4065,14300.0
1698673081613.879,14337.0
1698673081634.351,14384.0
1698673081654.8235,14451.0
1698673081675.296,14509.0
1698673081695.768,14588.0
1698673081716.2405,14609.0
1698673081736.713,14631.0
1698673081757.1853,14647.0
1698673081777.6577,14652.0
1698673081798.13,14694.0
1698673081818.6023,14725.0
1698673081839.0747,14749.0
1698673081859.5469,14770.0
1698673081880.0193,14786.0
1698673081900.4917,14811.0
1698673081920.964,14825.0
1698673081941.4363,14836.0
1698673081961.9087,14849.0
1698673081982.381,14853.0
1698673082002.8535,14862.0
1698673082023.3257,14858.0
1698673082043.798,14839.0
1698673082064.2705,14854.0
1698673082084.743,14850.0
1698673082105.215,14851.0
1698673082125.6875,14855.0
1698673082146.16,14865.0
1698673082166.632,14865.0
1698673082187.1045,14866.0
1698673082207.577,14874.0
1698673082228.0493,14881.0
1698673082248.5215,14892.0
1698673082268.994,14899.0
1698673082289.4663,14899.0
1698673082309.9387,14899.0
1698673082330.411,14900.0
1698673082350.8833,14896.0
1698673082371.3557,14880.0
1698673082391.828,14900.0
1698673082412.3003,14903.0
1698673082432.7727,14886.0
1698673082453.245,14900.0
1698673082473.7175,14901.0
1698673082494.1897,14896.0
1698673082514.662,14898.0
1698673082535.1345,14902.0
1698673082555.607,14906.0
1698673082576.079,14908.0
1698673082596.5515,14910.0
1698673082617.024,14910.0
1698673082637.496,14913.0
1698673082657.9685,14912.0
1698673082678.441,14913.0
1698673082698.913,14914.0
1698673082719.3855,14916.0
1698673082739.858,14916.0
1698673082760.3303,14919.0
1698673082780.8027,14899.0
1698673082801.275,14920.0
1698673082821.7473,14918.0
1698673082842.2195,14920.0
1698673082862.692,14925.0
1698673082883.1643,14921.0
1698673082903.6367,14921.0
1698673082924.1091,14902.0
1698673082944.5815,14907.0
1698673082965.0537,14929.0
1698673082985.526,14933.0
1698673083005.9983,14934.0
1698673083026.471,14929.0
1698673083046.943,14931.0
1698673083067.4155,14928.0
1698673083087.888,14931.0
1698673083108.36,14914.0
1698673083128.8325,14936.0
1698673083149.305,14935.0
1698673083169.777,14937.0
1698673083190.2495,14936.0
1698673083210.722,14936.0
1698673083231.1943,14937.0
1698673083251.6667,14942.0
1698673083272.139,14938.0
1698673083292.611,14925.0
1698673083313.0835,14941.0
1698673083333.5562,14944.0
1698673083354.0283,14947.0
1698673083374.5007,14946.0
1698673083394.9731,14946.0
1698673083415.4456,14946.0
1698673083435.9175,14948.0
1698673083456.39,14947.0
1698673083476.8623,14947.0
1698673083497.335,14948.0
1698673083517.8071,14949.0
1698673083538.2795,14944.0
1698673083558.752,14945.0
1698673083579.224,14950.0
1698673083599.6963,14952.0
1698673083620.169,14949.0
1698673083640.6414,14950.0
1698673083661.1135,14947.0
1698673083681.586,14947.0
1698673083702.0583,14927.0
1698673083722.5308,14931.0
1698673083743.003,14950.0
1698673083763.475,14950.0
1698673083783.9478,14952.0
1698673083804.4202,14947.0
1698673083824.8923,14950.0
1698673083845.3647,14950.0
1698673083865.8372,14948.0
1698673083886.3096,14952.0
1698673083906.7815,14954.0
1698673083927.2542,14932.0
1698673083947.7266,14952.0
1698673083968.199,14953.0
1698673083988.6711,14955.0
1698673084009.1436,14952.0
1698673084029.616,14957.0
1698673084050.0884,14959.0
1698673084070.5603,14954.0
1698673084091.033,14954.0
1698673084111.5054,14958.0
1698673084131.9775,14960.0
1698673084152.45,14955.0
1698673084172.9224,14958.0
1698673084193.3948,14957.0
1698673084213.867,14958.0
1698673084234.3394,14959.0
1698673084254.8118,14958.0
1698673084275.2842,14962.0
1698673084295.7563,14964.0
1698673084316.2288,14964.0
1698673084336.7012,14963.0
1698673084357.1736,14961.0
1698673084377.6458,14963.0
1698673084398.1182,14963.0
1698673084418.5906,14962.0
1698673084439.063,14965.0
1698673084459.5352,14969.0
1698673084480.0076,14944.0
1698673084500.48,14967.0
1698673084520.9524,14947.0
1698673084541.4246,14969.0
1698673084561.897,14966.0
1698673084582.3694,14968.0
1698673084602.8416,14968.0
1698673084623.314,14968.0
1698673084643.7864,14972.0
1698673084664.2588,14972.0
1698673084684.731,14970.0
1698673084705.2034,14967.0
1698673084725.6758,14948.0
1698673084746.1482,14973.0
1698673084766.6204,14969.0
1698673084787.0928,14974.0
1698673084807.5652,14973.0
1698673084828.0376,14974.0
1698673084848.5098,14972.0
1698673084868.9822,14977.0
1698673084889.4546,14971.0
1698673084909.927,14968.0
1698673084930.3992,14974.0
1698673084950.8716,14975.0
1698673084971.344,14978.0
1698673084991.8164,14977.0
1698673085012.2886,14977.0
1698673085032.761,14974.0
1698673085053.2334,14978.0
1698673085073.7056,14974.0
1698673085094.178,14975.0
1698673085114.6504,14975.0
1698673085135.1228,14978.0
1698673085155.595,14980.0
1698673085176.0674,14956.0
1698673085196.5398,14980.0
1698673085217.0122,14982.0
1698673085237.4844,14985.0
1698673085257.9568,14987.0
1698673085278.4292,14985.0
1698673085298.9016,14991.0
1698673085319.3738,14987.0
1698673085339.8462,14992.0
1698673085360.3186,14992.0
1698673085380.791,14997.0
1698673085401.2632,14998.0
1698673085421.7356,15000.0
1698673085442.208,15001.0
1698673085462.6804,15002.0
1698673085483.1526,14973.0
1698673085503.625,14991.0
1698673085524.0974,14963.0
1698673085544.5696,14973.0
1698673085565.042,14965.0
1698673085585.5144,14969.0
1698673085605.9868,14965.0
1698673085626.459,14975.0
1698673085646.9314,14977.0
1698673085667.4038,14977.0
1698673085687.8762,14976.0
1698673085708.3484,14978.0
1698673085728.8208,14987.0
1698673085749.2932,14997.0
1698673085769.7656,14995.0
1698673085790.2378,14989.0
1698673085810.7102,14987.0
1698673085831.1826,14992.0
1698673085851.655,14994.0
1698673085872.1272,14996.0
1698673085892.5996,15000.0
1698673085913.072,15002.0
1698673085933.5444,14975.0
1698673085954.0166,14998.0
1698673085974.489,14994.0
1698673085994.9614,14985.0
1698673086015.4336,14988.0
1698673086035.906,14993.0
1698673086056.3784,14993.0
1698673086076.8508,14992.0
1698673086097.323,14971.0
1698673086117.7954,14993.0
1698673086138.2678,14994.0
1698673086158.7402,14997.0
1698673086179.2124,14997.0
1698673086199.6848,15000.0
1698673086220.1572,14980.0
1698673086240.6296,15002.0
1698673086261.1018,15002.0
1698673086281.5742,15010.0
1698673086302.0466,14994.0
1698673086322.519,15015.0
1698673086342.9912,15021.0
1698673086363.4636,15021.0
1698673086383.936,15025.0
1698673086404.4084,15028.0
1698673086424.8806,15030.0
1698673086445.353,15028.0
1698673086465.8254,15011.0
1698673086486.2976,15034.0
1698673086506.77,15031.0
1698673086527.2424,15012.0
1698673086547.7148,15032.0
1698673086568.187,15031.0
1698673086588.6594,15037.0
1698673086609.1318,15044.0
1698673086629.6042,15039.0
1698673086650.0764,15041.0
1698673086670.5488,15035.0
1698673086691.0212,15041.0
1698673086711.4937,15039.0
1698673086731.9658,15043.0
1698673086752.4382,15045.0
1698673086772.9106,15042.0
1698673086793.383,15043.0
1698673086813.8552,15042.0
1698673086834.3276,15047.0
1698673086854.8,15047.0
1698673086875.2725,15047.0
1698673086895.7446,15035.0
1698673086916.217,15052.0
1698673086936.6897,15049.0
1698673086957.1616,15052.0
1698673086977.634,15056.0
1698673086998.1064,15062.0
1698673087018.5789,15062.0
1698673087039.051,15055.0
1698673087059.5234,15043.0
1698673087079.9958,15045.0
1698673087100.4685,15044.0
1698673087120.9404,15053.0
1698673087141.4128,15057.0
1698673087161.8853,15049.0
1698673087182.3577,15050.0
1698673087202.8298,15046.0
1698673087223.3022,15048.0
1698673087243.775,15053.0
1698673087264.247,15031.0
1698673087284.7192,15049.0
1698673087305.1917,15050.0
1698673087325.664,15049.0
1698673087346.1365,15051.0
1698673087366.6086,15050.0
1698673087387.081,15051.0
1698673087407.5537,15052.0
1698673087428.026,15046.0
1698673087448.498,15048.0
1698673087468.9705,15050.0
1698673087489.4429,15045.0
1698673087509.915,15041.0
1698673087530.3877,15043.0
1698673087550.86,15048.0
1698673087571.3325,15045.0
1698673087591.8044,15040.0
1698673087612.2769,15037.0
1698673087632.7493,15036.0
1698673087653.2217,15037.0
1698673087673.6938,15043.0
1698673087694.1665,15040.0
1698673087714.639,15042.0
1698673087735.111,15046.0
1698673087755.5833,15050.0
1698673087776.0557,15047.0
1698673087796.528,15048.0
1698673087817.0005,15048.0
1698673087837.473,15053.0
1698673087857.945,15049.0
1698673087878.4175,15051.0
1698673087898.89,15054.0
1698673087919.362,15058.0
1698673087939.8345,15058.0
1698673087960.307,15034.0
1698673087980.779,15059.0
1698673088001.2517,15057.0
1698673088021.724,15054.0
1698673088042.1963,15056.0
1698673088062.6685,15038.0
1698673088083.1409,15061.0
1698673088103.6133,15062.0
1698673088124.0857,15058.0
1698673088144.558,15043.0
1698673088165.0305,15063.0
1698673088185.5027,15069.0
1698673088205.975,15073.0
1698673088226.4473,15070.0
1698673088246.9197,15075.0
1698673088267.392,15078.0
1698673088287.8645,15080.0
1698673088308.337,15090.0
1698673088328.809,15086.0
1698673088349.2815,15089.0
1698673088369.754,15081.0
1698673088390.226,15085.0
1698673088410.6985,15085.0
1698673088431.171,15087.0
1698673088451.643,15082.0
1698673088472.1155,15082.0
1698673088492.588,15082.0
1698673088513.0603,15076.0
1698673088533.5325,15074.0
1698673088554.005,15075.0
1698673088574.4773,15078.0
1698673088594.9497,15084.0
1698673088615.422,15084.0
1698673088635.8943,15081.0
1698673088656.3667,15054.0
1698673088676.839,15079.0
1698673088697.3113,15083.0
1698673088717.7837,15087.0
1698673088738.256,15091.0
1698673088758.7285,15086.0
1698673088779.2007,15082.0
1698673088799.673,15063.0
1698673088820.1455,15085.0
1698673088840.618,15084.0
1698673088861.09,15082.0
1698673088881.5625,15064.0
1698673088902.035,15087.0
1698673088922.507,15085.0
1698673088942.9795,15081.0
1698673088963.452,15073.0
1698673088983.9243,15078.0
1698673089004.3965,15079.0
1698673089024.869,15081.0
1698673089045.3413,15082.0
1698673089065.8137,15080.0
1698673089086.286,15077.0
1698673089106.7583,15079.0
1698673089127.2307,15088.0
1698673089147.7031,15089.0
1698673089168.1753,15090.0
1698673089188.6477,15093.0
1698673089209.12,15094.0
1698673089229.5923,15097.0
1698673089250.0647,15099.0
1698673089270.537,15099.0
1698673089291.0095,15096.0
1698673089311.482,15093.0
1698673089331.954,15091.0
1698673089352.4265,15095.0
1698673089372.899,15096.0
1698673089393.371,15098.0
1698673089413.8435,15100.0
1698673089434.316,15098.0
1698673089454.7883,15080.0
1698673089475.2605,15102.0
1698673089495.733,15104.0
1698673089516.205,15104.0
1698673089536.6775,15101.0
1698673089557.15,15098.0
1698673089577.6223,15100.0
1698673089598.0947,15108.0
1698673089618.5671,15109.0
1698673089639.0393,15110.0
1698673089659.5117,15108.0
1698673089679.984,15113.0
1698673089700.4563,15113.0
1698673089720.9287,15119.0
1698673089741.4011,15121.0
1698673089761.8735,15118.0
1698673089782.346,15093.0
1698673089802.818,15116.0
1698673089823.2903,15112.0
1698673089843.763,15108.0
1698673089864.235,15112.0
1698673089884.7075,15118.0
1698673089905.18,15119.0
1698673089925.6523,15119.0
1698673089946.1245,15116.0
1698673089966.597,15114.0
1698673089987.069,15116.0
1698673090007.5415,15125.0
1698673090028.014,15127.0
1698673090048.4863,15120.0
1698673090068.9587,15117.0
1698673090089.4312,15117.0
1698673090109.9033,15118.0
1698673090130.3755,15118.0
1698673090150.848,15119.0
1698673090171.3206,15117.0
1698673090191.7927,15113.0
1698673090212.2651,15110.0
1698673090232.7375,15110.0
1698673090253.21,15116.0
1698673090273.682,15114.0
1698673090294.1543,15117.0
1698673090314.627,15111.0
1698673090335.099,15113.0
1698673090355.5715,15110.0
1698673090376.044,15115.0
1698673090396.5164,15092.0
1698673090416.9883,15116.0
1698673090437.461,15113.0
1698673090457.933,15109.0
1698673090478.4058,15110.0
1698673090498.878,15109.0
1698673090519.3503,15108.0
1698673090539.8228,15111.0
1698673090560.2952,15088.0
1698673090580.767,15111.0
1698673090601.2395,15102.0
1698673090621.7122,15109.0
1698673090642.1846,15108.0
1698673090662.6567,15114.0
1698673090683.1292,15110.0
1698673090703.6016,15110.0
1698673090724.074,15109.0
1698673090744.546,15109.0
1698673090765.0186,15112.0
1698673090785.491,15113.0
1698673090805.9634,15113.0
1698673090826.4355,15115.0
1698673090846.908,15116.0
1698673090867.3804,15113.0
1698673090887.8523,15121.0
1698673090908.325,15121.0
1698673090928.7974,15120.0
1698673090949.2698,15121.0
1698673090969.742,15124.0
1698673090990.2144,15124.0
1698673091010.6868,15124.0
1698673091031.1592,15125.0
1698673091051.631,15128.0
1698673091072.1038,15131.0
1698673091092.5762,15136.0
1698673091113.0486,15137.0
1698673091133.5208,15141.0
1698673091153.9932,15142.0
1698673091174.4656,15143.0
1698673091194.938,15125.0
1698673091215.4102,15146.0
1698673091235.8826,15145.0
1698673091256.355,15142.0
1698673091276.8274,15152.0
1698673091297.2996,15155.0
1698673091317.772,15157.0
1698673091338.2444,15152.0
1698673091358.7166,15143.0
1698673091379.189,15147.0
1698673091399.6614,15150.0
1698673091420.1338,15155.0
1698673091440.606,15153.0
1698673091461.0784,15151.0
1698673091481.5508,15153.0
1698673091502.0232,15152.0
1698673091522.4954,15154.0
1698673091542.9678,15150.0
1698673091563.4402,15149.0
1698673091583.9126,15153.0
1698673091604.3848,15146.0
1698673091624.8572,15143.0
1698673091645.3296,15144.0
1698673091665.802,15145.0
1698673091686.2742,15125.0
1698673091706.7466,15125.0
1698673091727.219,15141.0
1698673091747.6914,15133.0
1698673091768.1636,15135.0
1698673091788.636,15138.0
1698673091809.1084,15131.0
1698673091829.5806,15132.0
1698673091850.053,15111.0
1698673091870.5254,15134.0
1698673091890.9978,15117.0
1698673091911.47,15142.0
1698673091931.9424,15147.0
1698673091952.4148,15145.0
1698673091972.8872,15142.0
1698673091993.3594,15145.0
1698673092013.8318,15142.0
1698673092034.3042,15148.0
1698673092054.7766,15151.0
1698673092075.2488,15149.0
1698673092095.7212,15144.0
1698673092116.1936,15125.0
1698673092136.666,15153.0
1698673092157.1382,15153.0
1698673092177.6106,15156.0
1698673092198.083,15154.0
1698673092218.5554,15156.0
1698673092239.0276,15135.0
1698673092259.5,15159.0
1698673092279.9724,15151.0
1698673092300.4446,15155.0
1698673092320.917,15160.0
1698673092341.3894,15160.0
1698673092361.8618,15163.0
1698673092382.334,15160.0
1698673092402.8064,15159.0
1698673092423.2788,15159.0
1698673092443.7512,15140.0
1698673092464.2234,15160.0
1698673092484.6958,15143.0
1698673092505.1682,15163.0
1698673092525.6406,15161.0
1698673092546.1128,15166.0
1698673092566.5852,15171.0
1698673092587.0576,15172.0
1698673092607.53,15169.0
1698673092628.0022,15166.0
1698673092648.4746,15167.0
1698673092668.947,15145.0
1698673092689.4194,15157.0
1698673092709.8916,15167.0
1698673092730.364,15168.0
1698673092750.8364,15172.0
1698673092771.3086,15146.0
1698673092791.781,15165.0
1698673092812.2534,15167.0
1698673092832.7258,15167.0
1698673092853.198,15161.0
1698673092873.6704,15162.0
1698673092894.1428,15144.0
1698673092914.6152,15160.0
1698673092935.0874,15164.0
1698673092955.5598,15162.0
1698673092976.0322,15161.0
1698673092996.5046,15166.0
1698673093016.9768,15159.0
1698673093037.4492,15158.0
1698673093057.9216,15157.0
1698673093078.394,15151.0
1698673093098.8662,15152.0
1698673093119.3386,15150.0
1698673093139.811,15152.0
1698673093160.2834,15151.0
1698673093180.7556,15152.0
1698673093201.228,15154.0
1698673093221.7004,15151.0
1698673093242.1726,15157.0
1698673093262.645,15158.0
1698673093283.1174,15163.0
1698673093303.5898,15138.0
1698673093324.062,15160.0
1698673093344.5344,15159.0
1698673093365.0068,15160.0
1698673093385.4792,15166.0
1698673093405.9514,15169.0
1698673093426.4238,15165.0
1698673093446.8962,15170.0
1698673093467.369,15171.0
1698673093487.8408,15174.0
1698673093508.3132,15173.0
1698673093528.7856,15177.0
1698673093549.258,15179.0
1698673093569.7302,15180.0
1698673093590.2026,15178.0
1698673093610.675,15183.0
1698673093631.1477,15186.0
1698673093651.6196,15190.0
1698673093672.092,15196.0
1698673093692.5645,15192.0
1698673093713.0366,15192.0
1698673093733.509,15187.0
1698673093753.9814,15185.0
1698673093774.454,15191.0
1698673093794.926,15199.0
1698673093815.3984,15204.0
1698673093835.8708,15204.0
1698673093856.3433,15196.0
1698673093876.8154,15193.0
1698673093897.2878,15197.0
1698673093917.7605,15196.0
1698673093938.233,15198.0
1698673093958.7048,15195.0
1698673093979.1772,15195.0
1698673093999.6497,15193.0
1698673094020.122,15189.0
1698673094040.5942,15188.0
1698673094061.067,15188.0
1698673094081.539,15185.0
1698673094102.0117,15188.0
1698673094122.4836,15180.0
1698673094142.956,15180.0
1698673094163.4285,15154.0
1698673094183.901,15174.0
1698673094204.373,15174.0
1698673094224.8457,15179.0
1698673094245.318,15177.0
1698673094265.79,15174.0
1698673094286.2625,15171.0
1698673094306.7349,15172.0
1698673094327.2073,15172.0
1698673094347.6794,15176.0
1698673094368.152,15154.0
1698673094388.6245,15176.0
1698673094409.0967,15181.0
1698673094429.5688,15185.0
1698673094450.0413,15186.0
1698673094470.5137,15181.0
1698673094490.986,15164.0
1698673094511.4585,15191.0
1698673094531.931,15193.0
1698673094552.403,15190.0
1698673094572.8755,15188.0
1698673094593.3477,15185.0
1698673094613.82,15181.0
1698673094634.2925,15190.0
1698673094654.765,15191.0
1698673094675.237,15189.0
1698673094695.7097,15193.0
1698673094716.182,15192.0
1698673094736.654,15195.0
1698673094757.1265,15196.0
1698673094777.5989,15198.0
1698673094798.0713,15199.0
1698673094818.5437,15201.0
1698673094839.016,15199.0
1698673094859.4883,15196.0
1698673094879.9607,15175.0
1698673094900.4329,15195.0
1698673094920.9053,15175.0
1698673094941.3777,15194.0
1698673094961.85,15200.0
1698673094982.3225,15195.0
1698673095002.795,15197.0
1698673095023.267,15195.0
1698673095043.7395,15194.0
1698673095064.2117,15199.0
1698673095084.684,15194.0
1698673095105.1565,15197.0
1698673095125.629,15200.0
1698673095146.101,15184.0
1698673095166.5735,15211.0
1698673095187.046,15205.0
1698673095207.518,15203.0
1698673095227.9905,15181.0
1698673095248.463,15202.0
1698673095268.9353,15201.0
1698673095289.4077,15201.0
1698673095309.88,15196.0
1698673095330.3523,15193.0
1698673095350.8247,15198.0
1698673095371.2969,15209.0
1698673095391.7693,15210.0
1698673095412.2417,15207.0
1698673095432.714,15202.0
1698673095453.1863,15203.0
1698673095473.6587,15207.0
1698673095494.131,15210.0
1698673095514.6035,15209.0
1698673095535.0757,15186.0
1698673095555.548,15181.0
1698673095576.0205,15181.0
1698673095596.493,15201.0
1698673095616.965,15204.0
1698673095637.4375,15206.0
1698673095657.91,15205.0
1698673095678.382,15184.0
1698673095698.8545,15196.0
1698673095719.327,15196.0
1698673095739.7993,15198.0
1698673095760.2715,15174.0
1698673095780.744,15191.0
1698673095801.2163,15193.0
1698673095821.6887,15194.0
1698673095842.161,15201.0
1698673095862.6333,15203.0
1698673095883.1057,15205.0
1698673095903.578,15202.0
1698673095924.0503,15202.0
1698673095944.5227,15200.0
1698673095964.995,15197.0
1698673095985.4675,15176.0
1698673096005.9397,15199.0
1698673096026.412,15196.0
1698673096046.8845,15198.0
1698673096067.357,15202.0
1698673096087.829,15201.0
1698673096108.3015,15204.0
1698673096128.774,15199.0
1698673096149.246,15195.0
1698673096169.7185,15198.0
1698673096190.191,15197.0
1698673096210.663,15203.0
1698673096231.1355,15200.0
1698673096251.608,15202.0
1698673096272.0803,15200.0
1698673096292.5527,15185.0
1698673096313.025,15210.0
1698673096333.4973,15209.0
1698673096353.9695,15214.0
1698673096374.442,15213.0
1698673096394.9143,15210.0
1698673096415.3867,15209.0
1698673096435.8591,15211.0
1698673096456.3315,15213.0
1698673096476.8037,15216.0
1698673096497.276,15211.0
1698673096517.7483,15212.0
1698673096538.221,15208.0
1698673096558.693,15206.0
1698673096579.1655,15212.0
1698673096599.638,15216.0
1698673096620.11,15217.0
1698673096640.5825,15215.0
1698673096661.055,15219.0
1698673096681.527,15223.0
1698673096701.9995,15229.0
1698673096722.472,15231.0
1698673096742.9443,15229.0
1698673096763.4167,15225.0
1698673096783.889,15220.0
1698673096804.361,15223.0
1698673096824.8335,15220.0
1698673096845.3062,15228.0
1698673096865.7783,15223.0
1698673096886.2507,15218.0
1698673096906.7231,15215.0
1698673096927.1956,15196.0
1698673096947.6675,15223.0
1698673096968.14,15221.0
1698673096988.6123,15216.0
1698673097009.085,15214.0
1698673097029.5571,15221.0
1698673097050.0295,15216.0
1698673097070.502,15217.0
1698673097090.974,15219.0
1698673097111.4463,15219.0
1698673097131.919,15224.0
1698673097152.3914,15229.0
1698673097172.8635,15226.0
1698673097193.336,15226.0
1698673097213.8083,15230.0
1698673097234.2808,15230.0
1698673097254.753,15205.0
1698673097275.225,15220.0
1698673097295.6978,15205.0
1698673097316.1702,15223.0
1698673097336.6423,15222.0
1698673097357.1147,15224.0
1698673097377.5872,15228.0
1698673097398.0596,15228.0
1698673097418.5315,15227.0
1698673097439.0042,15230.0
1698673097459.4766,15226.0
1698673097479.949,15221.0
1698673097500.4211,15223.0
1698673097520.8936,15224.0
1698673097541.366,15226.0
1698673097561.8384,15229.0
1698673097582.3103,15231.0
1698673097602.783,15231.0
1698673097623.2554,15231.0
1698673097643.7275,15231.0
1698673097664.2,15234.0
1698673097684.6724,15240.0
1698673097705.1448,15233.0
1698673097725.617,15213.0
1698673097746.0894,15234.0
1698673097766.5618,15239.0
1698673097787.0342,15241.0
1698673097807.5063,15240.0
1698673097827.9788,15234.0
1698673097848.4512,15216.0
1698673097868.9236,15238.0
1698673097889.3958,15243.0
1698673097909.8682,15244.0
1698673097930.3406,15239.0
1698673097950.813,15212.0
1698673097971.2852,15233.0
1698673097991.7576,15239.0
1698673098012.23,15241.0
1698673098032.7024,15240.0
1698673098053.1746,15237.0
1698673098073.647,15236.0
1698673098094.1194,15233.0
1698673098114.5916,15229.0
1698673098135.064,15215.0
1698673098155.5364,15232.0
1698673098176.0088,15227.0
1698673098196.481,15230.0
1698673098216.9534,15230.0
1698673098237.4258,15229.0
1698673098257.8982,15232.0
1698673098278.3704,15225.0
1698673098298.8428,15201.0
1698673098319.3152,15218.0
1698673098339.7876,15215.0
1698673098360.2598,15213.0
1698673098380.7322,15208.0
1698673098401.2046,15211.0
1698673098421.677,15219.0
1698673098442.1492,15221.0
1698673098462.6216,15223.0
1698673098483.094,15221.0
1698673098503.5664,15219.0
1698673098524.0386,15217.0
1698673098544.511,15212.0
1698673098564.9834,15217.0
1698673098585.4556,15219.0
1698673098605.928,15223.0
1698673098626.4004,15221.0
1698673098646.8728,15226.0
1698673098667.345,15228.0
1698673098687.8174,15224.0
1698673098708.2898,15228.0
1698673098728.7622,15229.0
1698673098749.2344,15230.0
1698673098769.7068,15237.0
1698673098790.1792,15238.0
1698673098810.6516,15234.0
1698673098831.1238,15236.0
1698673098851.5962,15238.0
1698673098872.0686,15239.0
1698673098892.541,15236.0
1698673098913.0132,15241.0
1698673098933.4856,15236.0
1698673098953.958,15236.0
1698673098974.4304,15241.0
1698673098994.9026,15241.0
1698673099015.375,15237.0
1698673099035.8474,15241.0
1698673099056.3196,15236.0
1698673099076.792,15238.0
1698673099097.2644,15236.0
1698673099117.7368,15235.0
1698673099138.209,15230.0
1698673099158.6814,15236.0
1698673099179.1538,15234.0
1698673099199.6262,15231.0
1698673099220.0984,15229.0
1698673099240.5708,15228.0
1698673099261.0432,15227.0
1698673099281.5156,15227.0
1698673099301.9878,15219.0
1698673099322.4602,15217.0
1698673099342.9326,15214.0
1698673099363.405,15212.0
1698673099383.8772,15213.0
1698673099404.3496,15215.0
1698673099424.822,15210.0
1698673099445.2944,15215.0
1698673099465.7666,15215.0
1698673099486.239,15222.0
1698673099506.7114,15224.0
1698673099527.1836,15226.0
1698673099547.656,15228.0
1698673099568.1284,15236.0
1698673099588.6008,15236.0
1698673099609.073,15236.0
1698673099629.5454,15238.0
1698673099650.0178,15241.0
1698673099670.4902,15245.0
1698673099690.9624,15246.0
1698673099711.4348,15246.0
1698673099731.9072,15247.0
1698673099752.3796,15248.0
1698673099772.8518,15245.0
1698673099793.3242,15247.0
1698673099813.7966,15244.0
1698673099834.269,15223.0
1698673099854.7412,15243.0
1698673099875.2136,15246.0
1698673099895.686,15252.0
1698673099916.1584,15252.0
1698673099936.6306,15251.0
1698673099957.103,15253.0
1698673099977.5754,15248.0
1698673099998.0476,15250.0
1698673100018.52,15254.0
1698673100038.9924,15252.0
1698673100059.4648,15229.0
1698673100079.937,15245.0
1698673100100.4094,15246.0
1698673100120.8818,15229.0
1698673100141.3542,15250.0
1698673100161.8264,15251.0
1698673100182.2988,15252.0
1698673100202.7712,15256.0
1698673100223.2437,15256.0
1698673100243.7158,15257.0
1698673100264.1882,15260.0
1698673100284.6606,15257.0
1698673100305.133,15255.0
1698673100325.6052,15257.0
1698673100346.0776,15259.0
1698673100366.55,15260.0
1698673100387.0225,15269.0
1698673100407.4946,15261.0
1698673100427.967,15237.0
1698673100448.4397,15257.0
1698673100468.9116,15263.0
1698673100489.384,15264.0
1698673100509.8564,15262.0
1698673100530.3289,15241.0
1698673100550.801,15260.0
1698673100571.2734,15264.0
1698673100591.7458,15266.0
1698673100612.2185,15265.0
1698673100632.6904,15261.0
1698673100653.1628,15262.0
1698673100673.6353,15262.0
1698673100694.1077,15264.0
1698673100714.5798,15265.0
1698673100735.0522,15243.0
1698673100755.525,15261.0
1698673100775.997,15257.0
1698673100796.4692,15256.0
1698673100816.9417,15255.0
1698673100837.414,15257.0
1698673100857.8865,15257.0
1698673100878.3586,15259.0
1698673100898.831,15262.0
1698673100919.3037,15260.0
1698673100939.776,15252.0
1698673100960.248,15254.0
1698673100980.7205,15249.0
1698673101001.1929,15249.0
1698673101021.665,15252.0
1698673101042.1377,15252.0
1698673101062.61,15253.0
1698673101083.0825,15251.0
1698673101103.5544,15255.0
1698673101124.0269,15255.0
1698673101144.4993,15255.0
1698673101164.9717,15253.0
1698673101185.4438,15249.0
1698673101205.9165,15228.0
1698673101226.389,15251.0
1698673101246.861,15252.0
1698673101267.3333,15257.0
1698673101287.8057,15252.0
1698673101308.278,15255.0
1698673101328.7505,15255.0
1698673101349.223,15255.0
1698673101369.695,15253.0
1698673101390.1675,15258.0
1698673101410.64,15257.0
1698673101431.112,15260.0
1698673101451.5845,15260.0
1698673101472.057,15265.0
1698673101492.529,15244.0
1698673101513.0017,15272.0
1698673101533.474,15278.0
1698673101553.9463,15277.0
1698673101574.4185,15276.0
1698673101594.8909,15270.0
1698673101615.3633,15269.0
1698673101635.8357,15267.0
1698673101656.308,15273.0
1698673101676.7805,15281.0
1698673101697.2527,15283.0
1698673101717.725,15279.0
1698673101738.1973,15275.0
1698673101758.6697,15272.0
1698673101779.142,15268.0
1698673101799.6145,15266.0
1698673101820.087,15268.0
1698673101840.559,15262.0
1698673101861.0315,15266.0
1698673101881.504,15269.0
1698673101901.976,15264.0
1698673101922.4485,15268.0
1698673101942.921,15268.0
1698673101963.393,15270.0
1698673101983.8655,15271.0
1698673102004.338,15260.0
1698673102024.8103,15259.0
1698673102045.2825,15252.0
1698673102065.755,15253.0
1698673102086.2273,15230.0
1698673102106.6997,15232.0
1698673102127.172,15246.0
1698673102147.6443,15244.0
1698673102168.1167,15240.0
1698673102188.589,15244.0
1698673102209.0613,15219.0
1698673102229.5337,15247.0
1698673102250.006,15242.0
1698673102270.4785,15251.0
1698673102290.9507,15256.0
1698673102311.423,15252.0
1698673102331.8955,15258.0
1698673102352.368,15263.0
1698673102372.84,15243.0
1698673102393.3125,15239.0
1698673102413.785,15256.0
1698673102434.257,15253.0
1698673102454.7295,15247.0
1698673102475.202,15248.0
1698673102495.6743,15251.0
1698673102516.1465,15251.0
1698673102536.619,15258.0
1698673102557.0913,15263.0
1698673102577.5637,15255.0
1698673102598.036,15255.0
1698673102618.5083,15260.0
1698673102638.9807,15260.0
1698673102659.4531,15260.0
1698673102679.9253,15260.0
1698673102700.3977,15261.0
1698673102720.87,15259.0
1698673102741.3423,15261.0
1698673102761.8147,15264.0
1698673102782.287,15266.0
1698673102802.7595,15273.0
1698673102823.232,15268.0
1698673102843.704,15269.0
1698673102864.1765,15271.0
1698673102884.649,15269.0
1698673102905.121,15265.0
1698673102925.5935,15269.0
1698673102946.066,15273.0
1698673102966.5383,15276.0
1698673102987.0105,15275.0
1698673103007.483,15272.0
1698673103027.955,15274.0
1698673103048.4275,15274.0
1698673103068.9,15275.0
1698673103089.3723,15269.0
1698673103109.8447,15272.0
1698673103130.3171,15273.0
1698673103150.7893,15277.0
1698673103171.2617,15276.0
1698673103191.734,15278.0
1698673103212.2063,15279.0
1698673103232.6787,15277.0
1698673103253.1511,15272.0
1698673103273.6235,15269.0
1698673103294.096,15272.0
1698673103314.568,15270.0
1698673103335.0403,15273.0
1698673103355.513,15271.0
1698673103375.985,15267.0
1698673103396.4575,15270.0
1698673103416.93,15247.0
1698673103437.4023,15270.0
1698673103457.8745,15272.0
1698673103478.347,15249.0
1698673103498.819,15266.0
1698673103519.2915,15264.0
1698673103539.764,15263.0
1698673103560.2363,15259.0
1698673103580.7087,15264.0
1698673103601.1812,15265.0
1698673103621.6533,15264.0
1698673103642.1255,15243.0
1698673103662.598,15260.0
1698673103683.0706,15264.0
1698673103703.5427,15261.0
1698673103724.0151,15263.0
1698673103744.4875,15247.0
1698673103764.96,15267.0
1698673103785.432,15271.0
1698673103805.9043,15268.0
1698673103826.377,15269.0
1698673103846.849,15267.0
1698673103867.3215,15269.0
1698673103887.794,15271.0
1698673103908.2664,15254.0
1698673103928.7383,15272.0
1698673103949.211,15252.0
1698673103969.683,15250.0
1698673103990.1558,15269.0
1698673104010.628,15276.0
1698673104031.1003,15275.0
1698673104051.5728,15278.0
1698673104072.0452,15274.0
1698673104092.517,15279.0
1698673104112.9895,15276.0
1698673104133.4622,15285.0
1698673104153.9346,15286.0
1698673104174.4067,15268.0
1698673104194.8792,15279.0
1698673104215.3516,15279.0
1698673104235.824,15280.0
1698673104256.296,15279.0
1698673104276.7686,15288.0
1698673104297.241,15293.0
1698673104317.7134,15293.0
1698673104338.1855,15274.0
1698673104358.658,15287.0
1698673104379.1304,15277.0
1698673104399.6023,15278.0
1698673104420.075,15280.0
1698673104440.5474,15282.0
1698673104461.0198,15277.0
1698673104481.492,15277.0
1698673104501.9644,15280.0
1698673104522.4368,15281.0
1698673104542.9092,15276.0
1698673104563.381,15253.0
1698673104583.8538,15275.0
1698673104604.3262,15271.0
1698673104624.7986,15267.0
1698673104645.2708,15266.0
1698673104665.7432,15265.0
1698673104686.2156,15262.0
1698673104706.688,15263.0
1698673104727.1602,15265.0
1698673104747.6326,15259.0
1698673104768.105,15264.0
1698673104788.5774,15262.0
1698673104809.0496,15263.0
1698673104829.522,15263.0
1698673104849.9944,15264.0
1698673104870.4666,15261.0
1698673104890.939,15248.0
1698673104911.4114,15270.0
1698673104931.8838,15272.0
1698673104952.356,15271.0
1698673104972.8284,15271.0
1698673104993.3008,15273.0
1698673105013.7732,15275.0
1698673105034.2454,15274.0
1698673105054.7178,15277.0
1698673105075.1902,15274.0
1698673105095.6626,15271.0
1698673105116.1348,15265.0
1698673105136.6072,15267.0
1698673105157.0796,15252.0
1698673105177.552,15277.0
1698673105198.0242,15275.0
1698673105218.4966,15276.0
1698673105238.969,15271.0
1698673105259.4414,15277.0
1698673105279.9136,15272.0
1698673105300.386,15275.0
1698673105320.8584,15271.0
1698673105341.3306,15275.0
1698673105361.803,15272.0
1698673105382.2754,15273.0
1698673105402.7478,15269.0
1698673105423.22,15282.0
1698673105443.6924,15286.0
1698673105464.1648,15289.0
1698673105484.6372,15282.0
1698673105505.1094,15282.0
1698673105525.5818,15289.0
1698673105546.0542,15289.0
1698673105566.5266,15290.0
1698673105586.9988,15287.0
1698673105607.4712,15281.0
1698673105627.9436,15283.0
1698673105648.416,15288.0
1698673105668.8882,15290.0
1698673105689.3606,15283.0
1698673105709.833,15279.0
1698673105730.3054,15279.0
1698673105750.7776,15285.0
1698673105771.25,15287.0
1698673105791.7224,15291.0
1698673105812.1946,15287.0
1698673105832.667,15263.0
1698673105853.1394,15284.0
1698673105873.6118,15285.0
1698673105894.084,15279.0
1698673105914.5564,15284.0
1698673105935.0288,15276.0
1698673105955.5012,15281.0
1698673105975.9734,15279.0
1698673105996.4458,15280.0
1698673106016.9182,15281.0
1698673106037.3906,15259.0
1698673106057.8628,15263.0
1698673106078.3352,15282.0
1698673106098.8076,15277.0
1698673106119.28,15275.0
1698673106139.7522,15278.0
1698673106160.2246,15277.0
1698673106180.697,15274.0
1698673106201.1694,15276.0
1698673106221.6416,15281.0
1698673106242.114,15281.0
1698673106262.5864,15279.0
1698673106283.0586,15277.0
1698673106303.531,15278.0
1698673106324.0034,15280.0
1698673106344.4758,15280.0
1698673106364.948,15274.0
1698673106385.4204,15280.0
1698673106405.8928,15273.0
1698673106426.3652,15276.0
1698673106446.8374,15274.0
1698673106467.3098,15275.0
1698673106487.7822,15276.0
1698673106508.2546,15275.0
1698673106528.7268,15276.0
1698673106549.1992,15280.0
1698673106569.6716,15280.0
1698673106590.144,15279.0
1698673106610.6162,15277.0
1698673106631.0886,15280.0
1698673106651.561,15282.0
1698673106672.0334,15288.0
1698673106692.5056,15287.0
1698673106712.978,15286.0
1698673106733.4504,15288.0
1698673106753.9226,15285.0
1698673106774.395,15290.0
1698673106794.8674,15289.0
1698673106815.3398,15297.0
1698673106835.812,15300.0
1698673106856.2844,15301.0
1698673106876.7568,15299.0
1698673106897.2292,15291.0
1698673106917.7014,15294.0
1698673106938.1738,15288.0
1698673106958.6462,15284.0
1698673106979.119,15286.0
1698673106999.5908,15287.0
1698673107020.0632,15290.0
1698673107040.5356,15288.0
1698673107061.008,15273.0
1698673107081.4802,15294.0
1698673107101.9526,15295.0
1698673107122.425,15294.0
1698673107142.8977,15293.0
1698673107163.3696,15287.0
1698673107183.842,15291.0
1698673107204.3145,15288.0
1698673107224.7866,15282.0
1698673107245.259,15285.0
1698673107265.7314,15280.0
1698673107286.204,15284.0
1698673107306.676,15281.0
1698673107327.1484,15256.0
1698673107347.6208,15273.0
1698673107368.0933,15274.0
1698673107388.5654,15273.0
1698673107409.0378,15276.0
1698673107429.5105,15254.0
1698673107449.983,15254.0
1698673107470.4548,15262.0
1698673107490.9272,15286.0
1698673107511.3997,15290.0
1698673107531.872,15297.0
1698673107552.3442,15298.0
1698673107572.817,15291.0
1698673107593.289,15293.0
1698673107613.7617,15290.0
1698673107634.2336,15279.0
1698673107654.706,15283.0
1698673107675.1785,15284.0
1698673107695.651,15283.0
1698673107716.123,15282.0
1698673107736.5957,15286.0
1698673107757.068,15289.0
1698673107777.54,15287.0
1698673107798.0125,15291.0
1698673107818.4849,15292.0
1698673107838.9573,15293.0
1698673107859.4294,15290.0
1698673107879.902,15288.0
1698673107900.3745,15295.0
1698673107920.8467,15296.0
1698673107941.3188,15297.0
1698673107961.7913,15295.0
1698673107982.2637,15292.0
1698673108002.736,15294.0
1698673108023.2085,15297.0
1698673108043.681,15300.0
1698673108064.153,15293.0
1698673108084.6255,15291.0
1698673108105.0977,15289.0
1698673108125.57,15293.0
1698673108146.0425,15299.0
1698673108166.515,15291.0
1698673108186.987,15292.0
1698673108207.4597,15291.0
1698673108227.932,15288.0
1698673108248.404,15291.0
1698673108268.8765,15293.0
1698673108289.3489,15291.0
1698673108309.8213,15291.0
1698673108330.2937,15291.0
1698673108350.766,15292.0
1698673108371.2383,15288.0
1698673108391.7107,15284.0
1698673108412.1829,15289.0
1698673108432.6553,15286.0
1698673108453.1277,15290.0
1698673108473.6,15287.0
1698673108494.0725,15290.0
1698673108514.545,15289.0
1698673108535.017,15280.0
1698673108555.4895,15276.0
1698673108575.9617,15280.0
1698673108596.434,15284.0
1698673108616.9065,15282.0
1698673108637.379,15266.0
1698673108657.851,15286.0
1698673108678.3235,15288.0
1698673108698.796,15285.0
1698673108719.268,15285.0
1698673108739.7405,15283.0
1698673108760.213,15283.0
1698673108780.6853,15285.0
1698673108801.1577,15284.0
1698673108821.63,15265.0
1698673108842.1023,15287.0
1698673108862.5747,15284.0
1698673108883.0469,15286.0
1698673108903.5193,15287.0
1698673108923.9917,15290.0
1698673108944.464,15287.0
1698673108964.9363,15282.0
1698673108985.4087,15289.0
1698673109005.881,15291.0
1698673109026.3535,15292.0
1698673109046.8257,15291.0
1698673109067.298,15295.0
1698673109087.7705,15299.0
1698673109108.243,15292.0
1698673109128.715,15296.0
1698673109149.1875,15298.0
1698673109169.66,15297.0
1698673109190.132,15304.0
1698673109210.6045,15307.0
1698673109231.077,15312.0
1698673109251.5493,15312.0
1698673109272.0215,15311.0
1698673109292.494,15306.0
1698673109312.9663,15296.0
1698673109333.4387,15299.0
1698673109353.911,15299.0
1698673109374.3833,15297.0
1698673109394.8557,15300.0
1698673109415.328,15293.0
1698673109435.8003,15300.0
1698673109456.2727,15278.0
1698673109476.745,15294.0
1698673109497.2175,15290.0
1698673109517.6897,15284.0
1698673109538.162,15281.0
1698673109558.6345,15283.0
1698673109579.107,15261.0
1698673109599.579,15287.0
1698673109620.0515,15290.0
1698673109640.524,15286.0
1698673109660.996,15283.0
1698673109681.4685,15281.0
1698673109701.941,15281.0
1698673109722.413,15284.0
1698673109742.8855,15283.0
1698673109763.358,15279.0
1698673109783.8303,15282.0
1698673109804.3027,15275.0
1698673109824.775,15281.0
1698673109845.2473,15283.0
1698673109865.7195,15286.0
1698673109886.192,15288.0
1698673109906.6643,15289.0
1698673109927.1367,15292.0
1698673109947.6091,15292.0
1698673109968.0815,15291.0
1698673109988.5537,15290.0
1698673110009.026,15289.0
1698673110029.4983,15289.0
1698673110049.971,15287.0
1698673110070.443,15271.0
1698673110090.9155,15288.0
1698673110111.388,15283.0
1698673110131.86,15284.0
1698673110152.3325,15287.0
1698673110172.805,15290.0
1698673110193.277,15292.0
1698673110213.7495,15293.0
1698673110234.222,15294.0
1698673110254.6943,15290.0
1698673110275.1667,15288.0
1698673110295.639,15293.0
1698673110316.111,15292.0
1698673110336.5835,15292.0
1698673110357.0562,15295.0
1698673110377.5283,15295.0
1698673110398.0007,15295.0
1698673110418.4731,15298.0
1698673110438.9456,15299.0
1698673110459.4175,15299.0
1698673110479.89,15304.0
1698673110500.3623,15302.0
1698673110520.835,15302.0
1698673110541.3071,15305.0
1698673110561.7795,15309.0
1698673110582.252,15306.0
1698673110602.724,15306.0
1698673110623.1963,15305.0
1698673110643.669,15305.0
1698673110664.1414,15302.0
1698673110684.6135,15304.0
1698673110705.086,15304.0
1698673110725.5583,15300.0
1698673110746.0308,15301.0
1698673110766.503,15299.0
1698673110786.975,15298.0
1698673110807.4478,15298.0
1698673110827.9202,15296.0
1698673110848.3923,15298.0
1698673110868.8647,15298.0
1698673110889.3372,15273.0
1698673110909.8096,15297.0
1698673110930.2815,15275.0
1698673110950.7542,15295.0
1698673110971.2266,15296.0
1698673110991.699,15292.0
1698673111012.1711,15289.0
1698673111032.6436,15288.0
1698673111053.116,15285.0
1698673111073.5884,15266.0
1698673111094.0603,15292.0
1698673111114.533,15293.0
1698673111135.0054,15295.0
1698673111155.4775,15297.0
1698673111175.95,15295.0
1698673111196.4224,15297.0
1698673111216.8948,15300.0
1698673111237.367,15297.0
1698673111257.8394,15298.0
1698673111278.3118,15296.0
1698673111298.7842,15299.0
1698673111319.2563,15302.0
1698673111339.7288,15303.0
1698673111360.2012,15303.0
1698673111380.6736,15283.0
1698673111401.1458,15283.0
1698673111421.6182,15307.0
1698673111442.0906,15312.0
1698673111462.563,15318.0
1698673111483.0352,15313.0
1698673111503.5076,15289.0
1698673111523.98,15310.0
1698673111544.4524,15315.0
1698673111564.9246,15297.0
1698673111585.397,15319.0
1698673111605.8694,15320.0
1698673111626.3416,15318.0
1698673111646.814,15312.0
1698673111667.2864,15287.0
1698673111687.7588,15310.0
1698673111708.231,15308.0
1698673111728.7034,15309.0
1698673111749.1758,15307.0
1698673111769.6482,15308.0
1698673111790.1204,15306.0
1698673111810.5928,15309.0
1698673111831.0652,15308.0
1698673111851.5376,15306.0
1698673111872.0098,15308.0
1698673111892.4822,15302.0
1698673111912.9546,15303.0
1698673111933.427,15299.0
1698673111953.8992,15297.0
1698673111974.3716,15295.0
1698673111994.844,15296.0
1698673112015.3164,15296.0
1698673112035.7886,15296.0
1698673112056.261,15294.0
1698673112076.7334,15291.0
1698673112097.2056,15293.0
1698673112117.678,15294.0
1698673112138.1504,15297.0
1698673112158.6228,15298.0
1698673112179.095,15294.0
1698673112199.5674,15296.0
1698673112220.0398,15300.0
1698673112240.5122,15298.0
1698673112260.9844,15301.0
1698673112281.4568,15297.0
1698673112301.9292,15299.0
1698673112322.4016,15299.0
1698673112342.8738,15302.0
1698673112363.3462,15306.0
1698673112383.8186,15306.0
1698673112404.291,15302.0
1698673112424.7632,15303.0
1698673112445.2356,15302.0
1698673112465.708,15305.0
1698673112486.1804,15301.0
1698673112506.6526,15303.0
1698673112527.125,15283.0
1698673112547.5974,15308.0
1698673112568.0696,15286.0
1698673112588.542,15312.0
1698673112609.0144,15311.0
1698673112629.4868,15311.0
1698673112649.959,15306.0
1698673112670.4314,15284.0
1698673112690.9038,15308.0
1698673112711.3762,15311.0
1698673112731.8484,15308.0
1698673112752.3208,15310.0
1698673112772.7932,15289.0
1698673112793.2656,15306.0
1698673112813.7378,15311.0
1698673112834.2102,15289.0
1698673112854.6826,15316.0
1698673112875.155,15297.0
1698673112895.6272,15317.0
1698673112916.0996,15315.0
1698673112936.572,15318.0
1698673112957.0444,15316.0
1698673112977.5166,15313.0
1698673112997.989,15324.0
1698673113018.4614,15324.0
1698673113038.9336,15322.0
1698673113059.406,15323.0
1698673113079.8784,15320.0
1698673113100.3508,15321.0
1698673113120.823,15302.0
1698673113141.2954,15328.0
1698673113161.7678,15321.0
1698673113182.2402,15318.0
1698673113202.7124,15311.0
1698673113223.1848,15317.0
1698673113243.6572,15315.0
1698673113264.1296,15312.0
1698673113284.6018,15310.0
1698673113305.0742,15309.0
1698673113325.5466,15310.0
1698673113346.019,15311.0
1698673113366.4912,15307.0
1698673113386.9636,15308.0
1698673113407.436,15313.0
1698673113427.9084,15309.0
1698673113448.3806,15314.0
1698673113468.853,15311.0
1698673113489.3254,15312.0
1698673113509.7976,15314.0
1698673113530.27,15308.0
1698673113550.7424,15304.0
1698673113571.2148,15300.0
1698673113591.687,15305.0
1698673113612.1594,15310.0
1698673113632.6318,15314.0
1698673113653.1042,15291.0
1698673113673.5764,15295.0
1698673113694.0488,15294.0
1698673113714.5212,15313.0
1698673113734.9937,15313.0
1698673113755.4658,15316.0
1698673113775.9382,15314.0
1698673113796.4106,15311.0
1698673113816.883,15291.0
1698673113837.3552,15314.0
1698673113857.8276,15291.0
1698673113878.3,15311.0
1698673113898.7725,15309.0
1698673113919.2446,15315.0
1698673113939.717,15314.0
1698673113960.1897,15299.0
1698673113980.6616,15320.0
1698673114001.134,15321.0
1698673114021.6064,15319.0
1698673114042.0789,15323.0
1698673114062.551,15323.0
1698673114083.0234,15326.0
1698673114103.4958,15330.0
1698673114123.9685,15331.0
1698673114144.4404,15331.0
1698673114164.9128,15331.0
1698673114185.3853,15330.0
1698673114205.8577,15334.0
1698673114226.3298,15327.0
1698673114246.8022,15325.0
1698673114267.275,15323.0
1698673114287.747,15326.0
1698673114308.2192,15323.0
1698673114328.6917,15323.0
1698673114349.164,15319.0
1698673114369.6365,15324.0
1698673114390.1086,15324.0
1698673114410.581,15323.0
1698673114431.0537,15319.0
1698673114451.526,15295.0
1698673114471.998,15313.0
1698673114492.4705,15314.0
1698673114512.9429,15311.0
1698673114533.415,15307.0
1698673114553.8877,15287.0
1698673114574.36,15306.0
1698673114594.8325,15308.0
1698673114615.3044,15309.0
1698673114635.7769,15305.0
1698673114656.2493,15302.0
1698673114676.7217,15300.0
1698673114697.1938,15302.0
1698673114717.6665,15308.0
1698673114738.139,15315.0
1698673114758.611,15295.0
1698673114779.0833,15310.0
1698673114799.5557,15312.0
1698673114820.028,15314.0
1698673114840.5005,15317.0
1698673114860.973,15317.0
1698673114881.445,15318.0
1698673114901.9175,15325.0
1698673114922.39,15322.0
1698673114942.862,15322.0
1698673114963.3345,15316.0
1698673114983.807,15316.0
1698673115004.279,15316.0
1698673115024.7517,15316.0
1698673115045.224,15295.0
1698673115065.6963,15317.0
1698673115086.1685,15321.0
1698673115106.6409,15318.0
1698673115127.1133,15319.0
1698673115147.5857,15296.0
1698673115168.058,15319.0
1698673115188.5305,15322.0
1698673115209.0027,15328.0
1698673115229.475,15327.0
1698673115249.9473,15323.0
1698673115270.4197,15301.0
1698673115290.892,15322.0
1698673115311.3645,15306.0
1698673115331.837,15327.0
1698673115352.309,15324.0
1698673115372.7815,15303.0
1698673115393.254,15326.0
1698673115413.726,15330.0
1698673115434.1985,15329.0
1698673115454.671,15338.0
1698673115475.143,15330.0
1698673115495.6155,15321.0
1698673115516.088,15300.0
1698673115536.5603,15321.0
1698673115557.0325,15324.0
1698673115577.505,15306.0
1698673115597.9773,15324.0
1698673115618.4497,15327.0
1698673115638.922,15321.0
1698673115659.3943,15325.0
1698673115679.8667,15325.0
1698673115700.339,15329.0
1698673115720.8113,15323.0
1698673115741.2837,15324.0
1698673115761.756,15323.0
1698673115782.2285,15317.0
1698673115802.7007,15317.0
1698673115823.173,15319.0
1698673115843.6455,15323.0
1698673115864.118,15317.0
1698673115884.59,15320.0
1698673115905.0625,15321.0
1698673115925.535,15320.0
1698673115946.007,15312.0
1698673115966.4795,15306.0
1698673115986.952,15305.0
1698673116007.4243,15308.0
1698673116027.8965,15310.0
1698673116048.369,15309.0
1698673116068.8413,15312.0
1698673116089.3137,15312.0
1698673116109.786,15315.0
1698673116130.2583,15313.0
1698673116150.7307,15314.0
1698673116171.2031,15312.0
1698673116191.6753,15314.0
1698673116212.1477,15311.0
1698673116232.62,15318.0
1698673116253.0923,15318.0
1698673116273.5647,15318.0
1698673116294.037,15318.0
1698673116314.5095,15316.0
1698673116334.982,15324.0
1698673116355.454,15325.0
1698673116375.9265,15320.0
1698673116396.399,15321.0
1698673116416.871,15318.0
1698673116437.3435,15316.0
1698673116457.816,15319.0
1698673116478.2883,15320.0
1698673116498.7605,15327.0
1698673116519.233,15322.0
1698673116539.705,15324.0
1698673116560.1775,15321.0
1698673116580.65,15323.0
1698673116601.1223,15322.0
1698673116621.5947,15330.0
1698673116642.0671,15340.0
1698673116662.5393,15336.0
1698673116683.0117,15329.0
1698673116703.484,15327.0
1698673116723.9563,15325.0
1698673116744.4287,15329.0
1698673116764.9011,15327.0
1698673116785.3735,15324.0
1698673116805.846,15329.0
1698673116826.318,15327.0
1698673116846.7903,15305.0
1698673116867.263,15328.0
1698673116887.735,15325.0
1698673116908.2075,15328.0
1698673116928.68,15297.0
1698673116949.1523,15317.0
1698673116969.6245,15316.0
1698673116990.097,15293.0
1698673117010.569,15294.0
1698673117031.0415,15312.0
1698673117051.514,15312.0
1698673117071.9863,15311.0
1698673117092.4587,15307.0
1698673117112.9312,15294.0
1698673117133.4033,15314.0
1698673117153.8755,15318.0
1698673117174.348,15314.0
1698673117194.8206,15312.0
1698673117215.2927,15316.0
1698673117235.7651,15322.0
1698673117256.2375,15325.0
1698673117276.71,15322.0
1698673117297.182,15326.0
1698673117317.6543,15324.0
1698673117338.127,15322.0
1698673117358.599,15324.0
1698673117379.0715,15322.0
1698673117399.544,15320.0
1698673117420.0164,15321.0
1698673117440.4883,15319.0
1698673117460.961,15314.0
1698673117481.433,15316.0
1698673117501.9058,15318.0
1698673117522.378,15318.0
1698673117542.8503,15322.0
1698673117563.3228,15322.0
1698673117583.7952,15319.0
1698673117604.267,15322.0
1698673117624.7395,15323.0
1698673117645.2122,15329.0
1698673117665.6846,15326.0
1698673117686.1567,15325.0
1698673117706.6292,15330.0
1698673117727.1016,15333.0
1698673117747.574,15331.0
1698673117768.046,15326.0
1698673117788.5186,15327.0
1698673117808.991,15332.0
1698673117829.4634,15333.0
1698673117849.9355,15336.0
1698673117870.408,15328.0
1698673117890.8804,15325.0
1698673117911.3523,15332.0
1698673117931.825,15336.0
1698673117952.2974,15339.0
1698673117972.7698,15327.0
1698673117993.242,15329.0
1698673118013.7144,15320.0
1698673118034.1868,15325.0
1698673118054.6592,15329.0
1698673118075.131,15332.0
1698673118095.6038,15327.0
1698673118116.0762,15327.0
1698673118136.5486,15322.0
1698673118157.0208,15321.0
1698673118177.4932,15304.0
1698673118197.9656,15306.0
1698673118218.438,15330.0
1698673118238.9102,15336.0
1698673118259.3826,15336.0
1698673118279.855,15338.0
1698673118300.3274,15340.0
1698673118320.7996,15337.0
1698673118341.272,15312.0
1698673118361.7444,15288.0
1698673118382.2166,15257.0
1698673118402.689,15293.0
1698673118423.1614,15291.0
1698673118443.6338,15292.0
1698673118464.106,15292.0
1698673118484.5784,15252.0
1698673118505.0508,15226.0
1698673118525.5232,15205.0
1698673118545.9954,15204.0
1698673118566.4678,15194.0
1698673118586.9402,15173.0
1698673118607.4126,15150.0
1698673118627.8848,15118.0
1698673118648.3572,15087.0
1698673118668.8296,15055.0
1698673118689.302,15016.0
1698673118709.7742,14978.0
1698673118730.2466,14952.0
1698673118750.719,14927.0
1698673118771.1914,14907.0
1698673118791.6636,14883.0
1698673118812.136,14865.0
1698673118832.6084,14843.0
1698673118853.0806,14825.0
1698673118873.553,14809.0
1698673118894.0254,14774.0
1698673118914.4978,14774.0
1698673118934.97,14737.0
1698673118955.4424,14738.0
1698673118975.9148,14731.0
1698673118996.3872,14714.0
1698673119016.8594,14695.0
1698673119037.3318,14681.0
1698673119057.8042,14665.0
1698673119078.2766,14645.0
1698673119098.7488,14615.0
1698673119119.2212,14582.0
1698673119139.6936,14537.0
1698673119160.166,14494.0
1698673119180.6382,14453.0
1698673119201.1106,14409.0
1698673119221.583,14372.0
1698673119242.0554,14334.0
1698673119262.5276,14296.0
1698673119303.4724,14244.0
1698673119323.9446,14228.0
1698673119344.417,14211.0
1698673119364.8894,14191.0
1698673119385.3618,14172.0
1698673119405.834,14154.0
1698673119426.3064,14135.0
1698673119446.7788,14122.0
1698673119467.2512,14105.0
1698673119487.7234,14068.0
1698673119508.1958,14077.0
1698673119528.6682,14059.0
1698673119549.1406,14023.0
1698673119569.6128,14026.0
1698673119590.0852,13996.0
1698673119610.5576,13997.0
1698673119631.03,13972.0
1698673119651.5022,13943.0
1698673119671.9746,13901.0
1698673119692.447,13857.0
1698673119712.9194,13809.0
1698673119733.3916,13766.0
1698673119753.864,13722.0
1698673119774.3364,13674.0
1698673119794.8086,13630.0
1698673119815.281,13599.0
1698673119835.7534,13572.0
1698673119856.2258,13544.0
1698673119876.698,13522.0
1698673119897.1704,13497.0
1698673119917.6428,13479.0
1698673119938.1152,13465.0
1698673119958.5874,13425.0
1698673119979.0598,13426.0
1698673119999.5322,13410.0
1698673120020.0046,13391.0
1698673120040.4768,13372.0
1698673120060.9492,13357.0
1698673120081.4216,13333.0
1698673120101.894,13316.0
1698673120122.3662,13299.0
1698673120142.8386,13277.0
1698673120163.311,13267.0
1698673120183.7834,13250.0
1698673120204.2556,13236.0
1698673120224.728,13210.0
1698673120245.2004,13160.0
1698673120265.6726,13138.0
1698673120286.145,13104.0
1698673120306.6174,13062.0
1698673120327.0898,13005.0
1698673120347.562,12995.0
1698673120368.0344,12969.0
1698673120388.5068,12941.0
1698673120408.9792,12923.0
1698673120429.4514,12903.0
1698673120449.9238,12884.0
1698673120470.3962,12877.0
1698673120490.869,12851.0
1698673120511.3408,12855.0
1698673120531.8132,12851.0
1698673120552.2856,12840.0
1698673120572.758,12834.0
1698673120593.2302,12832.0
1698673120613.7026,12828.0
1698673120634.175,12816.0
1698673120654.6477,12812.0
1698673120675.1196,12806.0
1698673120695.592,12805.0
1698673120716.0645,12802.0
1698673120736.5366,12801.0
1698673120757.009,12798.0
1698673120777.4814,12795.0
1698673120797.954,12790.0
1698673120818.426,12785.0
1698673120838.8984,12772.0
1698673120859.3708,12754.0
1698673120879.8433,12718.0
1698673120900.3154,12713.0
1698673120920.7878,12689.0
1698673120941.2605,12665.0
1698673120961.733,12642.0
1698673120982.2048,12623.0
1698673121002.6772,12609.0
1698673121023.1497,12600.0
1698673121043.622,12570.0
1698673121064.0942,12584.0
1698673121084.567,12574.0
1698673121105.039,12575.0
1698673121125.5117,12575.0
1698673121145.9836,12579.0
1698673121166.456,12582.0
1698673121186.9285,12587.0
1698673121207.401,12592.0
1698673121227.873,12595.0
1698673121248.3457,12600.0
1698673121268.818,12605.0
1698673121289.29,12603.0
1698673121309.7625,12611.0
1698673121330.2349,12610.0
1698673121350.7073,12612.0
1698673121371.1794,12608.0
1698673121391.652,12606.0
1698673121412.1245,12603.0
1698673121432.5967,12609.0
1698673121453.0688,12626.0
1698673121473.5413,12638.0
1698673121494.0137,12648.0
1698673121514.486,12658.0
1698673121534.9585,12651.0
1698673121555.431,12626.0
1698673121575.903,12610.0
1698673121596.3755,12606.0
1698673121616.8477,12584.0
1698673121637.32,12549.0
1698673121657.7925,12520.0
1698673121678.265,12544.0
1698673121698.737,12542.0
1698673121719.2097,12538.0
1698673121739.682,12526.0
1698673121760.154,12502.0
1698673121780.6265,12476.0
1698673121801.0989,12461.0
1698673121821.5713,12435.0
1698673121842.0437,12455.0
1698673121862.516,12463.0
1698673121882.9883,12475.0
1698673121903.4607,12478.0
1698673121923.9329,12488.0
1698673121944.4053,12485.0
1698673121964.8777,12510.0
1698673121985.35,12519.0
1698673122005.8225,12533.0
1698673122026.295,12548.0
1698673122046.767,12565.0
1698673122067.2395,12584.0
1698673122087.7117,12608.0
1698673122108.184,12638.0
1698673122128.6565,12670.0
1698673122149.129,12710.0
1698673122169.601,12754.0
1698673122190.0735,12789.0
1698673122210.546,12820.0
1698673122231.018,12848.0
1698673122251.4905,12888.0
1698673122271.963,12918.0
1698673122292.4353,12923.0
1698673122312.9077,12918.0
1698673122333.38,12898.0
1698673122353.8523,12869.0
1698673122374.3247,12824.0
1698673122394.7969,12800.0
1698673122415.2693,12758.0
1698673122435.7417,12747.0
1698673122456.214,12733.0
1698673122476.6863,12712.0
1698673122497.1587,12695.0
1698673122517.631,12678.0
1698673122538.1035,12664.0
1698673122558.5757,12641.0
1698673122579.048,12628.0
1698673122599.5205,12605.0
1698673122619.993,12586.0
1698673122640.465,12571.0
1698673122660.9375,12542.0
1698673122681.41,12551.0
1698673122701.882,12531.0
1698673122722.3545,12548.0
1698673122742.827,12554.0
1698673122763.2993,12554.0
1698673122783.7715,12564.0
1698673122804.244,12565.0
1698673122824.7163,12574.0
1698673122845.1887,12578.0
1698673122865.661,12584.0
1698673122886.1333,12583.0
1698673122906.6057,12586.0
1698673122927.078,12588.0
1698673122947.5503,12588.0
1698673122968.0227,12591.0
1698673122988.495,12594.0
1698673123008.9675,12586.0
1698673123029.4397,12571.0
1698673123049.912,12552.0
1698673123070.3845,12523.0
1698673123090.857,12487.0
1698673123111.329,12464.0
1698673123131.8015,12459.0
1698673123152.274,12448.0
1698673123172.746,12438.0
1698673123193.2185,12428.0
1698673123213.691,12425.0
1698673123234.163,12420.0
1698673123254.6355,12426.0
1698673123275.108,12427.0
1698673123295.5803,12430.0
1698673123316.0527,12435.0
1698673123336.525,12437.0
1698673123356.9973,12439.0
1698673123377.4695,12445.0
1698673123397.942,12453.0
1698673123418.4143,12458.0
1698673123438.8867,12446.0
1698673123459.3591,12471.0
1698673123479.8315,12479.0
1698673123500.3037,12488.0
1698673123520.776,12496.0
1698673123541.2483,12503.0
1698673123561.721,12513.0
1698673123582.193,12521.0
1698673123602.6655,12525.0
1698673123623.138,12537.0
1698673123643.61,12544.0
1698673123664.0825,12547.0
1698673123684.555,12548.0
1698673123705.027,12535.0
1698673123725.4995,12517.0
1698673123745.972,12497.0
1698673123766.4443,12485.0
1698673123786.9167,12469.0
1698673123807.389,12456.0
1698673123827.861,12454.0
1698673123848.3335,12457.0
1698673123868.8062,12460.0
1698673123889.2783,12466.0
1698673123909.7507,12469.0
1698673123930.2231,12472.0
1698673123950.6956,12478.0
1698673123971.1675,12476.0
1698673123991.64,12474.0
