ts(msec),PPG
1698414815008.9211,21538.0
1698414815029.3386,21546.0
1698414815049.756,21538.0
1698414815070.1736,21547.0
1698414815090.5908,21541.0
1698414815111.0083,21542.0
1698414815131.4258,21547.0
1698414815151.8433,21550.0
1698414815172.2605,21558.0
1698414815192.678,21544.0
1698414815213.0957,21561.0
1698414815233.513,21559.0
1698414815253.9304,21566.0
1698414815274.3477,21562.0
1698414815294.7651,21561.0
1698414815315.1826,21568.0
1698414815335.6,21574.0
1698414815356.017,21568.0
1698414815376.4348,21573.0
1698414815396.8523,21578.0
1698414815417.2698,21579.0
1698414815437.687,21579.0
1698414815458.1045,21578.0
1698414815478.522,21574.0
1698414815498.9397,21582.0
1698414815519.357,21586.0
1698414815539.7742,21588.0
1698414815560.1917,21580.0
1698414815580.6091,21593.0
1698414815601.0266,21594.0
1698414815621.4438,21589.0
1698414815641.861,21594.0
1698414815662.2788,21592.0
1698414815682.6963,21592.0
1698414815703.1135,21592.0
1698414815723.531,21591.0
1698414815743.9485,21583.0
1698414815764.366,21595.0
1698414815784.7834,21588.0
1698414815805.2007,21591.0
1698414815825.6182,21590.0
1698414815846.0356,21589.0
1698414815866.4531,21593.0
1698414815886.8704,21584.0
1698414815907.2878,21593.0
1698414815927.705,21582.0
1698414815948.1228,21585.0
1698414815968.54,21588.0
1698414815988.9575,21589.0
1698414816009.375,21595.0
1698414816029.7925,21588.0
1698414816050.21,21598.0
1698414816070.6272,21587.0
1698414816091.045,21597.0
1698414816111.4622,21594.0
1698414816131.8796,21605.0
1698414816152.2969,21598.0
1698414816172.7144,21600.0
1698414816193.1318,21604.0
1698414816213.5493,21609.0
1698414816233.9666,21617.0
1698414816254.384,21616.0
1698414816274.8015,21613.0
1698414816295.219,21613.0
1698414816315.6365,21614.0
1698414816336.0537,21618.0
1698414816356.4712,21622.0
1698414816376.889,21623.0
1698414816397.3062,21623.0
1698414816417.7234,21627.0
1698414816438.1409,21626.0
1698414816458.5583,21631.0
1698414816478.9758,21631.0
1698414816499.393,21631.0
1698414816519.8103,21634.0
1698414816540.228,21627.0
1698414816560.6455,21634.0
1698414816581.063,21631.0
1698414816601.4802,21633.0
1698414816621.8977,21637.0
1698414816642.3152,21632.0
1698414816662.733,21629.0
1698414816683.15,21637.0
1698414816703.5674,21637.0
1698414816723.9849,21634.0
1698414816744.4023,21644.0
1698414816764.8196,21655.0
1698414816785.237,21650.0
1698414816805.6543,21660.0
1698414816826.072,21658.0
1698414816846.4895,21659.0
1698414816866.9067,21663.0
1698414816887.3242,21667.0
1698414816907.7417,21672.0
1698414816928.1592,21667.0
1698414816948.5764,21670.0
1698414816968.994,21676.0
1698414816989.4114,21676.0
1698414817009.8289,21674.0
1698414817030.246,21676.0
1698414817050.6636,21671.0
1698414817071.081,21677.0
1698414817091.4983,21670.0
1698414817111.916,21680.0
1698414817132.3333,21679.0
1698414817152.7507,21676.0
1698414817173.1682,21690.0
1698414817193.5857,21686.0
1698414817214.003,21685.0
1698414817234.4204,21689.0
1698414817254.838,21689.0
1698414817275.2554,21692.0
1698414817295.6726,21686.0
1698414817316.09,21683.0
1698414817336.5076,21680.0
1698414817356.925,21683.0
1698414817377.3423,21682.0
1698414817397.7598,21678.0
1698414817418.1772,21675.0
1698414817438.5947,21666.0
1698414817459.0122,21666.0
1698414817479.4294,21659.0
1698414817499.847,21656.0
1698414817520.2644,21656.0
1698414817540.682,21653.0
1698414817561.099,21651.0
1698414817581.5166,21656.0
1698414817601.934,21658.0
1698414817622.3516,21660.0
1698414817642.769,21661.0
1698414817663.1863,21659.0
1698414817683.6038,21660.0
1698414817704.0212,21668.0
1698414817724.4387,21671.0
1698414817744.856,21667.0
1698414817765.2734,21669.0
1698414817785.691,21676.0
1698414817806.1084,21680.0
1698414817826.526,21681.0
1698414817846.943,21687.0
1698414817867.3606,21681.0
1698414817887.778,21688.0
1698414817908.1956,21692.0
1698414817928.6128,21689.0
1698414817949.0305,21690.0
1698414817969.4478,21690.0
1698414817989.8652,21693.0
1698414818010.2825,21690.0
1698414818030.7,21695.0
1698414818051.1174,21691.0
1698414818071.535,21691.0
1698414818091.9524,21703.0
1698414818112.3696,21706.0
1698414818132.787,21693.0
1698414818153.2046,21702.0
1698414818173.622,21698.0
1698414818194.0393,21696.0
1698414818214.4568,21701.0
1698414818234.8745,21697.0
1698414818255.2915,21687.0
1698414818275.709,21693.0
1698414818296.1265,21691.0
1698414818316.544,21694.0
1698414818336.9614,21695.0
1698414818357.379,21690.0
1698414818377.796,21686.0
1698414818398.2136,21694.0
1698414818418.631,21686.0
1698414818439.0486,21689.0
1698414818459.4658,21691.0
1698414818479.8833,21689.0
1698414818500.3008,21696.0
1698414818520.7185,21692.0
1698414818541.1355,21689.0
1698414818561.553,21692.0
1698414818581.9705,21688.0
1698414818602.388,21701.0
1698414818622.8054,21696.0
1698414818643.223,21689.0
1698414818663.64,21698.0
1698414818684.0576,21693.0
1698414818704.475,21692.0
1698414818724.8923,21694.0
1698414818745.3098,21695.0
1698414818765.7273,21684.0
1698414818786.1448,21687.0
1698414818806.562,21682.0
1698414818826.9795,21687.0
1698414818847.397,21685.0
1698414818867.8145,21681.0
1698414818888.232,21674.0
1698414818908.6492,21680.0
1698414818929.067,21676.0
1698414818949.484,21667.0
1698414818969.9016,21677.0
1698414818990.3188,21682.0
1698414819010.7363,21673.0
1698414819031.1538,21671.0
1698414819051.5713,21674.0
1698414819071.9883,21669.0
1698414819092.406,21672.0
1698414819112.8235,21667.0
1698414819133.241,21661.0
1698414819153.6584,21668.0
1698414819174.0757,21664.0
1698414819194.4932,21676.0
1698414819214.9106,21666.0
1698414819235.328,21671.0
1698414819255.7454,21673.0
1698414819276.1628,21668.0
1698414819296.5803,21669.0
1698414819316.9978,21666.0
1698414819337.415,21677.0
1698414819357.8325,21673.0
1698414819378.25,21676.0
1698414819398.6675,21680.0
1698414819419.085,21688.0
1698414819439.5022,21683.0
1698414819459.9197,21681.0
1698414819480.3372,21679.0
1698414819500.7546,21685.0
1698414819521.172,21685.0
1698414819541.5894,21685.0
1698414819562.0068,21685.0
1698414819582.4243,21696.0
1698414819602.8416,21704.0
1698414819623.259,21697.0
1698414819643.6765,21697.0
1698414819664.094,21699.0
1698414819684.5117,21707.0
1698414819704.9287,21701.0
1698414819725.3462,21701.0
1698414819745.7637,21708.0
1698414819766.1812,21695.0
1698414819786.5984,21689.0
1698414819807.016,21696.0
1698414819827.433,21693.0
1698414819847.8508,21701.0
1698414819868.268,21696.0
1698414819888.6855,21701.0
1698414819909.103,21701.0
1698414819929.5205,21697.0
1698414819949.938,21711.0
1698414819970.3552,21706.0
1698414819990.7727,21703.0
1698414820011.1902,21708.0
1698414820031.6077,21708.0
1698414820052.025,21712.0
1698414820072.4424,21713.0
1698414820092.86,21712.0
1698414820113.277,21716.0
1698414820133.6946,21709.0
1698414820154.112,21718.0
1698414820174.5295,21716.0
1698414820194.947,21717.0
1698414820215.3645,21726.0
1698414820235.7815,21723.0
1698414820256.1992,21724.0
1698414820276.6167,21729.0
1698414820297.0342,21740.0
1698414820317.4514,21736.0
1698414820337.869,21740.0
1698414820358.2864,21734.0
1698414820378.704,21745.0
1698414820399.121,21748.0
1698414820419.5386,21743.0
1698414820439.956,21741.0
1698414820460.3735,21745.0
1698414820480.791,21737.0
1698414820501.2085,21737.0
1698414820521.6255,21736.0
1698414820542.0432,21730.0
1698414820562.4607,21724.0
1698414820582.878,21723.0
1698414820603.2954,21728.0
1698414820623.713,21724.0
1698414820644.1304,21729.0
1698414820664.5476,21730.0
1698414820684.965,21729.0
1698414820705.3826,21737.0
1698414820725.8,21729.0
1698414820746.2175,21730.0
1698414820766.6348,21730.0
1698414820787.0522,21726.0
1698414820807.4695,21726.0
1698414820827.8872,21725.0
1698414820848.3044,21732.0
1698414820868.722,21729.0
1698414820889.1394,21725.0
1698414820909.557,21729.0
1698414820929.974,21718.0
1698414820950.3916,21721.0
1698414820970.809,21724.0
1698414820991.2266,21720.0
1698414821011.644,21723.0
1698414821032.0613,21720.0
1698414821052.4788,21718.0
1698414821072.8962,21723.0
1698414821093.3137,21729.0
1698414821113.731,21716.0
1698414821134.1484,21733.0
1698414821154.566,21726.0
1698414821174.9834,21726.0
1698414821195.401,21722.0
1698414821215.818,21724.0
1698414821236.2356,21727.0
1698414821256.653,21730.0
1698414821277.0706,21724.0
1698414821297.4878,21730.0
1698414821317.9053,21719.0
1698414821338.3228,21728.0
1698414821358.7402,21716.0
1698414821379.1577,21709.0
1698414821399.575,21713.0
1698414821419.9924,21709.0
1698414821440.41,21694.0
1698414821460.8274,21686.0
1698414821481.2446,21682.0
1698414821501.662,21677.0
1698414821522.0796,21676.0
1698414821542.497,21662.0
1698414821562.9143,21666.0
1698414821583.3318,21660.0
1698414821603.7493,21647.0
1698414821624.1667,21647.0
1698414821644.584,21641.0
1698414821665.0017,21623.0
1698414821685.419,21624.0
1698414821705.8364,21608.0
1698414821726.254,21604.0
1698414821746.6711,21597.0
1698414821767.0886,21582.0
1698414821787.506,21570.0
1698414821807.9236,21567.0
1698414821828.3408,21556.0
1698414821848.7583,21548.0
1698414821869.1758,21547.0
1698414821889.5933,21540.0
1698414821910.0105,21544.0
1698414821930.428,21549.0
1698414821950.8457,21560.0
1698414821971.263,21571.0
1698414821991.6804,21587.0
1698414822012.0977,21601.0
1698414822032.5151,21624.0
1698414822052.9326,21640.0
1698414822073.35,21660.0
1698414822093.767,21675.0
1698414822114.1848,21697.0
1698414822134.6023,21713.0
1698414822155.0198,21739.0
1698414822175.437,21755.0
1698414822195.8545,21764.0
1698414822216.272,21776.0
1698414822236.6897,21784.0
1698414822257.107,21798.0
1698414822277.5242,21812.0
1698414822297.9417,21822.0
1698414822318.3591,21841.0
1698414822338.7766,21867.0
1698414822359.1938,21894.0
1698414822379.611,21920.0
1698414822400.0288,21943.0
1698414822420.4463,21984.0
1698414822440.8635,22016.0
1698414822461.281,22057.0
1698414822481.6985,22097.0
1698414822502.116,22134.0
1698414822522.5334,22172.0
1698414822542.9507,22223.0
1698414822563.3682,22256.0
1698414822583.7856,22292.0
1698414822604.2031,22320.0
1698414822624.6204,22362.0
1698414822645.0378,22393.0
1698414822665.455,22424.0
1698414822685.8728,22450.0
1698414822706.29,22490.0
1698414822726.7075,22531.0
1698414822747.125,22574.0
1698414822767.5425,22588.0
1698414822787.96,22614.0
1698414822808.3772,22638.0
1698414822828.795,22670.0
1698414822849.2122,22691.0
1698414822869.6296,22723.0
1698414822890.0469,22741.0
1698414822910.4644,22769.0
1698414822930.8818,22794.0
1698414822951.2993,22817.0
1698414822971.7166,22832.0
1698414822992.134,22852.0
1698414823012.5515,22865.0
1698414823032.969,22880.0
1698414823053.3865,22904.0
1698414823073.8037,22918.0
1698414823094.2212,22939.0
1698414823114.639,22951.0
1698414823135.0562,22963.0
1698414823155.4734,22980.0
1698414823175.8909,22990.0
1698414823196.3083,23000.0
1698414823216.7258,23010.0
1698414823237.143,23023.0
1698414823257.5603,23031.0
1698414823277.978,23043.0
1698414823298.3955,23057.0
1698414823318.813,23068.0
1698414823339.2302,23078.0
1698414823359.6477,23090.0
1698414823380.0652,23102.0
1698414823400.483,23115.0
1698414823420.9,23119.0
1698414823441.3174,23134.0
1698414823461.7349,23140.0
1698414823482.1523,23145.0
1698414823502.5696,23151.0
1698414823522.987,23155.0
1698414823543.4043,23170.0
1698414823563.822,23169.0
1698414823584.2395,23179.0
1698414823604.6567,23183.0
1698414823625.0742,23194.0
1698414823645.4917,23191.0
1698414823665.9092,23194.0
1698414823686.3264,23210.0
1698414823706.744,23220.0
1698414823727.1614,23224.0
1698414823747.5789,23222.0
1698414823767.996,23234.0
1698414823788.4136,23234.0
1698414823808.831,23244.0
1698414823829.2483,23248.0
1698414823849.666,23244.0
1698414823870.0833,23252.0
1698414823890.5007,23254.0
1698414823910.9182,23260.0
1698414823931.3357,23252.0
1698414823951.753,23255.0
1698414823972.1704,23262.0
1698414823992.588,23251.0
1698414824013.0054,23249.0
1698414824033.4226,23249.0
1698414824053.84,23243.0
1698414824074.2576,23244.0
1698414824094.675,23243.0
1698414824115.0923,23245.0
1698414824135.5098,23239.0
1698414824155.9272,23246.0
1698414824176.3447,23232.0
1698414824196.7622,23244.0
1698414824217.1794,23244.0
1698414824237.597,23244.0
1698414824258.0144,23244.0
1698414824278.432,23243.0
1698414824298.849,23242.0
1698414824319.2666,23231.0
1698414824339.684,23243.0
1698414824360.1016,23239.0
1698414824380.519,23241.0
1698414824400.9363,23233.0
1698414824421.3538,23239.0
1698414824441.7712,23239.0
1698414824462.1887,23237.0
1698414824482.606,23241.0
1698414824503.0234,23235.0
1698414824523.441,23230.0
1698414824543.8584,23230.0
1698414824564.276,23231.0
1698414824584.693,23221.0
1698414824605.1106,23218.0
1698414824625.528,23215.0
1698414824645.9456,23221.0
1698414824666.3628,23213.0
1698414824686.7805,23206.0
1698414824707.1978,23203.0
1698414824727.6152,23205.0
1698414824748.0325,23205.0
1698414824768.45,23198.0
1698414824788.8674,23209.0
1698414824809.285,23195.0
1698414824829.7024,23205.0
1698414824850.1196,23207.0
1698414824870.537,23206.0
1698414824890.9546,23211.0
1698414824911.372,23214.0
1698414824931.7893,23220.0
1698414824952.2068,23228.0
1698414824972.6245,23235.0
1698414824993.0415,23244.0
1698414825013.459,23262.0
1698414825033.8765,23264.0
1698414825054.294,23271.0
1698414825074.7114,23267.0
1698414825095.129,23276.0
1698414825115.546,23274.0
1698414825135.9636,23280.0
1698414825156.381,23282.0
1698414825176.7986,23279.0
1698414825197.2158,23271.0
1698414825217.6333,23276.0
1698414825238.0508,23270.0
1698414825258.4685,23267.0
1698414825278.8855,23271.0
1698414825299.303,23284.0
1698414825319.7205,23272.0
1698414825340.138,23281.0
1698414825360.5554,23291.0
1698414825380.973,23297.0
1698414825401.39,23305.0
1698414825421.8076,23308.0
1698414825442.225,23307.0
1698414825462.6423,23295.0
1698414825483.0598,23285.0
1698414825503.4773,23278.0
1698414825523.8948,23259.0
1698414825544.312,23255.0
1698414825564.7295,23244.0
1698414825585.147,23232.0
1698414825605.5645,23212.0
1698414825625.982,23202.0
1698414825646.3992,23184.0
1698414825666.817,23162.0
1698414825687.234,23154.0
1698414825707.6516,23138.0
1698414825728.0688,23127.0
1698414825748.4863,23124.0
1698414825768.9038,23126.0
1698414825789.3213,23115.0
1698414825809.7383,23110.0
1698414825830.156,23107.0
1698414825850.5735,23092.0
1698414825870.991,23093.0
1698414825891.4084,23087.0
1698414825911.8257,23082.0
1698414825932.2432,23068.0
1698414825952.6606,23069.0
1698414825973.078,23052.0
1698414825993.4954,23050.0
1698414826013.9128,23043.0
1698414826034.3303,23040.0
1698414826054.7478,23030.0
1698414826075.165,23019.0
1698414826095.5825,23026.0
1698414826116.0,23020.0
1698414826136.4175,23012.0
1698414826156.835,23007.0
1698414826177.2522,23007.0
1698414826197.6697,23004.0
1698414826218.0872,22998.0
1698414826238.5046,22988.0
1698414826258.922,22982.0
1698414826279.3394,22979.0
1698414826299.7568,22968.0
1698414826320.1743,22973.0
1698414826340.5916,22970.0
1698414826361.009,22963.0
1698414826381.4265,22966.0
1698414826401.844,22957.0
1698414826422.2617,22949.0
1698414826442.6787,22939.0
1698414826463.0962,22944.0
1698414826483.5137,22943.0
1698414826503.9312,22933.0
1698414826524.3484,22935.0
1698414826544.766,22922.0
1698414826565.183,22915.0
1698414826585.6008,22919.0
1698414826606.018,22913.0
1698414826626.4355,22908.0
1698414826646.853,22907.0
1698414826667.2705,22904.0
1698414826687.688,22902.0
1698414826708.1052,22899.0
1698414826728.5227,22896.0
1698414826748.9402,22885.0
1698414826769.3577,22885.0
1698414826789.775,22874.0
1698414826810.1924,22865.0
1698414826830.61,22865.0
1698414826851.027,22852.0
1698414826871.4446,22837.0
1698414826891.862,22831.0
1698414826912.2795,22836.0
1698414826932.697,22832.0
1698414826953.1145,22824.0
1698414826973.5315,22819.0
1698414826993.9492,22809.0
1698414827014.3667,22804.0
1698414827034.7842,22796.0
1698414827055.2014,22784.0
1698414827075.619,22777.0
1698414827096.0364,22765.0
1698414827116.454,22752.0
1698414827136.871,22739.0
1698414827157.2886,22711.0
1698414827177.706,22707.0
1698414827198.1235,22692.0
1698414827218.541,22686.0
1698414827238.9585,22691.0
1698414827259.3755,22699.0
1698414827279.7932,22700.0
1698414827300.2107,22694.0
1698414827320.628,22697.0
1698414827341.0454,22683.0
1698414827361.463,22669.0
1698414827381.8804,22648.0
1698414827402.2976,22632.0
1698414827422.715,22622.0
1698414827443.1326,22604.0
1698414827463.55,22597.0
1698414827483.9675,22583.0
1698414827504.3848,22562.0
1698414827524.8022,22556.0
1698414827545.2195,22545.0
1698414827565.6372,22539.0
1698414827586.0544,22533.0
1698414827606.472,22522.0
1698414827626.8894,22519.0
1698414827647.307,22519.0
1698414827667.724,22526.0
1698414827688.1416,22530.0
1698414827708.559,22524.0
1698414827728.9766,22529.0
1698414827749.394,22531.0
1698414827769.8113,22528.0
1698414827790.2288,22524.0
1698414827810.6462,22516.0
1698414827831.0637,22498.0
1698414827851.481,22483.0
1698414827871.8984,22472.0
1698414827892.316,22473.0
1698414827912.7334,22483.0
1698414827933.151,22485.0
1698414827953.568,22489.0
1698414827973.9856,22496.0
1698414827994.403,22514.0
1698414828014.8206,22531.0
1698414828035.2378,22532.0
1698414828055.6553,22536.0
1698414828076.0728,22525.0
1698414828096.4902,22511.0
1698414828116.9077,22501.0
1698414828137.325,22490.0
1698414828157.7424,22467.0
1698414828178.16,22459.0
1698414828198.5774,22449.0
1698414828218.9946,22453.0
1698414828239.412,22449.0
1698414828259.8296,22446.0
1698414828280.247,22448.0
1698414828300.6643,22442.0
1698414828321.0818,22452.0
1698414828341.4993,22440.0
1698414828361.9167,22434.0
1698414828382.334,22409.0
1698414828402.7517,22396.0
1698414828423.169,22384.0
1698414828443.5864,22373.0
1698414828464.004,22350.0
1698414828484.4211,22324.0
1698414828504.8386,22313.0
1698414828525.256,22307.0
1698414828545.6736,22316.0
1698414828566.0908,22329.0
1698414828586.5083,22321.0
1698414828606.9258,22318.0
1698414828627.3433,22311.0
1698414828647.7605,22306.0
1698414828668.178,22308.0
1698414828688.5957,22306.0
1698414828709.013,22306.0
1698414828729.4304,22299.0
1698414828749.8477,22299.0
1698414828770.2651,22303.0
1698414828790.6826,22307.0
1698414828811.1,22308.0
1698414828831.517,22319.0
1698414828851.9348,22338.0
1698414828872.3523,22351.0
1698414828892.7698,22355.0
1698414828913.187,22344.0
1698414828933.6045,22336.0
1698414828954.022,22319.0
1698414828974.4397,22306.0
1698414828994.857,22293.0
1698414829015.2742,22284.0
1698414829035.6917,22277.0
1698414829056.1091,22273.0
1698414829076.5266,22259.0
1698414829096.9438,22248.0
1698414829117.361,22246.0
1698414829137.7788,22234.0
1698414829158.1963,22223.0
1698414829178.6135,22223.0
1698414829199.031,22211.0
1698414829219.4485,22211.0
1698414829239.866,22208.0
1698414829260.2834,22199.0
1698414829280.7007,22191.0
1698414829301.1182,22188.0
1698414829321.5356,22196.0
1698414829341.9531,22195.0
1698414829362.3704,22196.0
1698414829382.7878,22203.0
1698414829403.205,22213.0
1698414829423.6228,22229.0
1698414829444.04,22227.0
1698414829464.4575,22228.0
1698414829484.875,22229.0
1698414829505.2925,22227.0
1698414829525.71,22231.0
1698414829546.1272,22226.0
1698414829566.545,22224.0
1698414829586.9622,22226.0
1698414829607.3796,22234.0
1698414829627.7969,22236.0
1698414829648.2144,22241.0
1698414829668.6318,22239.0
1698414829689.0493,22236.0
1698414829709.4666,22239.0
1698414829729.884,22243.0
1698414829750.3015,22232.0
1698414829770.719,22220.0
1698414829791.1365,22213.0
1698414829811.5537,22202.0
1698414829831.9712,22191.0
1698414829852.389,22190.0
1698414829872.8062,22189.0
1698414829893.2234,22192.0
1698414829913.6409,22185.0
1698414829934.0583,22190.0
1698414829954.4758,22192.0
1698414829974.893,22198.0
1698414829995.3103,22196.0
1698414830015.728,22164.0
1698414830036.1455,22117.0
1698414830056.563,22098.0
1698414830076.9802,22092.0
1698414830097.3977,22103.0
1698414830117.8152,22122.0
1698414830138.233,22180.0
1698414830158.65,22229.0
1698414830179.0674,22227.0
1698414830199.4849,22225.0
1698414830219.9023,22233.0
1698414830240.3196,22228.0
1698414830260.737,22225.0
1698414830281.1543,22223.0
1698414830301.572,22213.0
1698414830321.9895,22207.0
1698414830342.4067,22208.0
1698414830362.8242,22197.0
1698414830383.2417,22180.0
1698414830403.6592,22168.0
1698414830424.0764,22161.0
1698414830444.494,22151.0
1698414830464.9114,22151.0
1698414830485.3289,22153.0
1698414830505.746,22157.0
1698414830526.1636,22160.0
1698414830546.581,22152.0
1698414830566.9983,22157.0
1698414830587.416,22153.0
1698414830607.8333,22142.0
1698414830628.2507,22137.0
1698414830648.6682,22134.0
1698414830669.0857,22126.0
1698414830689.503,22124.0
1698414830709.9204,22120.0
1698414830730.338,22126.0
1698414830750.7554,22126.0
1698414830771.1726,22133.0
1698414830791.59,22138.0
1698414830812.0076,22147.0
1698414830832.425,22158.0
1698414830852.8423,22166.0
1698414830873.2598,22163.0
1698414830893.6772,22170.0
1698414830914.0947,22175.0
1698414830934.5122,22179.0
1698414830954.9294,22193.0
1698414830975.347,22209.0
1698414830995.7644,22219.0
1698414831016.182,22244.0
1698414831036.599,22269.0
1698414831057.0166,22274.0
1698414831077.434,22288.0
1698414831097.8516,22280.0
1698414831118.269,22280.0
1698414831138.6863,22280.0
1698414831159.1038,22278.0
1698414831179.5212,22272.0
1698414831199.9387,22269.0
1698414831220.356,22261.0
1698414831240.7734,22259.0
1698414831261.191,22264.0
1698414831281.6084,22265.0
1698414831302.026,22263.0
1698414831322.443,22269.0
1698414831342.8606,22255.0
1698414831363.278,22240.0
1698414831383.6956,22235.0
1698414831404.1128,22235.0
1698414831424.5305,22235.0
1698414831444.9478,22226.0
1698414831465.3652,22210.0
1698414831485.7825,22213.0
1698414831506.2,22212.0
1698414831526.6174,22202.0
1698414831547.035,22203.0
1698414831567.4524,22195.0
1698414831587.8696,22188.0
1698414831608.287,22186.0
1698414831628.7046,22179.0
1698414831649.122,22170.0
1698414831669.5393,22167.0
1698414831689.9568,22165.0
1698414831710.3745,22169.0
1698414831730.7915,22162.0
1698414831751.209,22159.0
1698414831771.6265,22143.0
1698414831792.044,22143.0
1698414831812.4614,22136.0
1698414831832.879,22144.0
1698414831853.296,22149.0
1698414831873.7136,22160.0
1698414831894.131,22165.0
1698414831914.5486,22177.0
1698414831934.9658,22197.0
1698414831955.3833,22212.0
1698414831975.8008,22228.0
1698414831996.2185,22234.0
1698414832016.6355,22241.0
1698414832037.053,22240.0
1698414832057.4705,22234.0
1698414832077.888,22233.0
1698414832098.3054,22229.0
1698414832118.723,22218.0
1698414832139.14,22211.0
1698414832159.5576,22206.0
1698414832179.975,22189.0
1698414832200.3923,22175.0
1698414832220.8098,22169.0
1698414832241.2273,22161.0
1698414832261.6448,22173.0
1698414832282.062,22173.0
1698414832302.4795,22176.0
1698414832322.897,22185.0
1698414832343.3145,22176.0
1698414832363.732,22172.0
1698414832384.1492,22166.0
1698414832404.567,22168.0
1698414832424.984,22160.0
1698414832445.4016,22151.0
1698414832465.8188,22156.0
1698414832486.2363,22136.0
1698414832506.6538,22139.0
1698414832527.0713,22132.0
1698414832547.4883,22135.0
1698414832567.906,22142.0
1698414832588.3235,22144.0
1698414832608.741,22127.0
1698414832629.1584,22124.0
1698414832649.5757,22123.0
1698414832669.9932,22128.0
1698414832690.4106,22144.0
1698414832710.828,22146.0
1698414832731.2454,22155.0
1698414832751.6628,22174.0
1698414832772.0803,22168.0
1698414832792.4978,22180.0
1698414832812.915,22177.0
1698414832833.3325,22165.0
1698414832853.75,22163.0
1698414832874.1675,22145.0
1698414832894.585,22150.0
1698414832915.0022,22160.0
1698414832935.4197,22169.0
1698414832955.8372,22172.0
1698414832976.2546,22167.0
1698414832996.672,22156.0
1698414833017.0894,22150.0
1698414833037.5068,22133.0
1698414833057.9243,22128.0
1698414833078.3416,22118.0
1698414833098.759,22114.0
1698414833119.1765,22111.0
1698414833139.594,22099.0
1698414833160.0117,22093.0
1698414833180.4287,22085.0
1698414833200.8462,22078.0
1698414833221.2637,22073.0
1698414833241.6812,22085.0
1698414833262.0984,22089.0
1698414833282.516,22109.0
1698414833302.933,22136.0
1698414833323.3508,22146.0
1698414833343.768,22150.0
1698414833364.1855,22151.0
1698414833384.603,22150.0
1698414833405.0205,22151.0
1698414833425.438,22150.0
1698414833445.8552,22151.0
1698414833466.2727,22166.0
1698414833486.6902,22174.0
1698414833507.1077,22195.0
1698414833527.525,22219.0
1698414833547.9424,22261.0
1698414833568.36,22305.0
1698414833588.777,22348.0
1698414833609.1946,22373.0
1698414833629.612,22396.0
1698414833650.0295,22398.0
1698414833670.447,22407.0
1698414833690.8645,22415.0
1698414833711.2815,22420.0
1698414833731.6992,22421.0
1698414833752.1167,22422.0
1698414833772.5342,22416.0
1698414833792.9514,22395.0
1698414833813.369,22368.0
1698414833833.7864,22358.0
1698414833854.204,22335.0
1698414833874.621,22332.0
1698414833895.0386,22321.0
1698414833915.456,22314.0
1698414833935.8735,22307.0
1698414833956.291,22303.0
1698414833976.7085,22288.0
1698414833997.1255,22287.0
1698414834017.5432,22284.0
1698414834037.9607,22284.0
1698414834058.378,22280.0
1698414834078.7954,22291.0
1698414834099.213,22284.0
1698414834119.6304,22288.0
1698414834140.0476,22289.0
1698414834160.465,22295.0
1698414834180.8826,22304.0
1698414834201.3,22318.0
1698414834221.7175,22350.0
1698414834242.1348,22373.0
1698414834262.5522,22393.0
1698414834282.9695,22422.0
1698414834303.3872,22462.0
1698414834323.8044,22509.0
1698414834344.222,22571.0
1698414834364.6394,22606.0
1698414834385.057,22632.0
1698414834405.474,22623.0
1698414834425.8916,22614.0
1698414834446.309,22599.0
1698414834466.7266,22620.0
1698414834487.144,22649.0
1698414834507.5613,22685.0
1698414834527.9788,22702.0
1698414834548.3962,22693.0
1698414834568.8137,22672.0
1698414834589.231,22643.0
1698414834609.6484,22617.0
1698414834630.066,22597.0
1698414834650.4834,22583.0
1698414834670.901,22558.0
1698414834691.318,22539.0
1698414834711.7356,22519.0
1698414834732.153,22501.0
1698414834752.5706,22498.0
1698414834772.9878,22499.0
1698414834793.4053,22500.0
1698414834813.8228,22510.0
1698414834834.2402,22530.0
1698414834854.6577,22559.0
1698414834875.075,22580.0
1698414834895.4924,22593.0
1698414834915.91,22607.0
1698414834936.3274,22605.0
1698414834956.7446,22590.0
1698414834977.162,22579.0
1698414834997.5796,22573.0
1698414835017.997,22578.0
1698414835038.4143,22593.0
1698414835058.8318,22629.0
1698414835079.2493,22650.0
1698414835099.6667,22697.0
1698414835120.084,22737.0
1698414835140.5017,22796.0
1698414835160.919,22853.0
1698414835181.3364,22915.0
1698414835201.754,22960.0
1698414835222.1711,22985.0
1698414835242.5886,22992.0
1698414835263.006,22968.0
1698414835283.4236,22955.0
1698414835303.8408,22925.0
1698414835324.2583,22893.0
1698414835344.6758,22865.0
1698414835365.0933,22848.0
1698414835385.5105,22818.0
1698414835405.928,22815.0
1698414835426.3457,22798.0
1698414835446.763,22764.0
1698414835467.1804,22723.0
1698414835487.5977,22673.0
1698414835508.0151,22645.0
1698414835528.4326,22619.0
1698414835548.85,22614.0
1698414835569.267,22618.0
1698414835589.6848,22625.0
1698414835610.1023,22647.0
1698414835630.5198,22681.0
1698414835650.937,22707.0
1698414835671.3545,22729.0
1698414835691.772,22749.0
1698414835712.1897,22763.0
1698414835732.607,22791.0
1698414835753.0242,22809.0
1698414835773.4417,22828.0
1698414835793.8591,22839.0
1698414835814.2766,22849.0
1698414835834.6938,22876.0
1698414835855.111,22897.0
1698414835875.5288,22929.0
1698414835895.9463,22950.0
1698414835916.3635,22968.0
1698414835936.781,22973.0
1698414835957.1985,22975.0
1698414835977.616,22964.0
1698414835998.0334,22948.0
1698414836018.4507,22929.0
1698414836038.8682,22935.0
1698414836059.2856,22955.0
1698414836079.7031,22985.0
1698414836100.1204,22998.0
1698414836120.5378,22996.0
1698414836140.955,22976.0
1698414836161.3728,22972.0
1698414836181.79,22977.0
1698414836202.2075,22973.0
1698414836222.625,22963.0
1698414836243.0425,22948.0
1698414836263.46,22904.0
1698414836283.8772,22868.0
1698414836304.295,22828.0
1698414836324.7122,22791.0
1698414836345.1296,22761.0
1698414836365.5469,22744.0
1698414836385.9644,22724.0
1698414836406.3818,22718.0
1698414836426.7993,22723.0
1698414836447.2166,22739.0
1698414836467.634,22759.0
1698414836488.0515,22759.0
1698414836508.469,22743.0
1698414836528.8865,22723.0
1698414836549.3037,22713.0
1698414836569.7212,22714.0
1698414836590.139,22744.0
1698414836610.5562,22776.0
1698414836630.9734,22819.0
1698414836651.3909,22838.0
1698414836671.8083,22854.0
1698414836692.2258,22878.0
1698414836712.643,22925.0
1698414836733.0603,22966.0
1698414836753.478,22987.0
1698414836773.8955,23012.0
1698414836794.313,23020.0
1698414836814.7302,23024.0
1698414836835.1477,23010.0
1698414836855.5652,23000.0
1698414836875.983,22976.0
1698414836896.4,22962.0
1698414836916.8174,22928.0
1698414836937.2349,22897.0
1698414836957.6523,22864.0
1698414836978.0696,22822.0
1698414836998.487,22782.0
1698414837018.9043,22746.0
1698414837039.322,22705.0
1698414837059.7395,22676.0
1698414837080.1567,22635.0
1698414837100.5742,22606.0
1698414837120.9917,22585.0
1698414837141.4092,22570.0
1698414837161.8264,22557.0
1698414837182.244,22574.0
1698414837202.6614,22602.0
1698414837223.0789,22640.0
1698414837243.496,22683.0
1698414837263.9136,22715.0
1698414837284.331,22782.0
1698414837304.7483,22836.0
1698414837325.166,22874.0
1698414837345.5833,22892.0
1698414837366.0007,22903.0
1698414837386.4182,22900.0
1698414837406.8357,22906.0
1698414837427.253,22902.0
1698414837447.6704,22909.0
1698414837468.088,22921.0
1698414837488.5054,22920.0
1698414837508.9226,22904.0
1698414837529.34,22905.0
1698414837549.7576,22923.0
1698414837570.175,22945.0
1698414837590.5923,22954.0
1698414837611.0098,22954.0
1698414837631.4272,22925.0
1698414837651.8447,22890.0
1698414837672.2622,22867.0
1698414837692.6794,22872.0
1698414837713.097,22907.0
1698414837733.5144,22910.0
1698414837753.932,22949.0
1698414837774.349,22966.0
1698414837794.7666,22987.0
1698414837815.184,22995.0
1698414837835.6016,22996.0
1698414837856.019,22979.0
1698414837876.4363,22949.0
1698414837896.8538,22906.0
1698414837917.2712,22867.0
1698414837937.6887,22839.0
1698414837958.106,22805.0
1698414837978.5234,22757.0
1698414837998.941,22730.0
1698414838019.3584,22715.0
1698414838039.776,22720.0
1698414838060.193,22747.0
1698414838080.6106,22803.0
1698414838101.028,22858.0
1698414838121.4456,22899.0
1698414838141.8628,22930.0
1698414838162.2805,22940.0
1698414838182.6978,22959.0
1698414838203.1152,22962.0
1698414838223.5325,22965.0
1698414838243.95,22967.0
1698414838264.3674,23006.0
1698414838284.785,23055.0
1698414838305.2024,23107.0
1698414838325.6196,23151.0
1698414838346.037,23157.0
1698414838366.4546,23171.0
1698414838386.872,23201.0
1698414838407.2893,23240.0
1698414838427.7068,23274.0
1698414838448.1245,23299.0
1698414838468.5415,23297.0
1698414838488.959,23282.0
1698414838509.3765,23253.0
1698414838529.794,23233.0
1698414838550.2114,23224.0
1698414838570.629,23220.0
1698414838591.046,23186.0
1698414838611.4636,23123.0
1698414838631.881,23043.0
1698414838652.2986,22942.0
1698414838672.7158,22835.0
1698414838693.1333,22734.0
1698414838713.5508,22626.0
1698414838733.9685,22554.0
1698414838754.3855,22509.0
1698414838774.803,22481.0
1698414838795.2205,22487.0
1698414838815.638,22528.0
1698414838836.0554,22575.0
1698414838856.473,22619.0
1698414838876.89,22663.0
1698414838897.3076,22704.0
1698414838917.725,22725.0
1698414838938.1423,22746.0
1698414838958.5598,22771.0
1698414838978.9773,22810.0
1698414838999.3948,22846.0
1698414839019.812,22853.0
1698414839040.2295,22862.0
1698414839060.647,22873.0
1698414839081.0645,22891.0
1698414839101.482,22922.0
1698414839121.8992,22944.0
1698414839142.317,22957.0
1698414839162.734,22945.0
1698414839183.1516,22935.0
1698414839203.5688,22912.0
1698414839223.9863,22899.0
1698414839244.4038,22885.0
1698414839264.8213,22897.0
1698414839285.2383,22946.0
1698414839305.656,23018.0
1698414839326.0735,23080.0
1698414839346.491,23107.0
1698414839366.9084,23110.0
1698414839387.3257,23064.0
1698414839407.7432,23030.0
1698414839428.1606,22983.0
1698414839448.578,22951.0
1698414839468.9954,22936.0
1698414839489.4128,22905.0
1698414839509.8303,22877.0
1698414839530.2478,22843.0
1698414839550.665,22823.0
1698414839571.0825,22792.0
1698414839591.5,22781.0
1698414839611.9175,22795.0
1698414839632.335,22826.0
1698414839652.7522,22874.0
1698414839673.1697,22933.0
1698414839693.5872,22992.0
1698414839714.0046,23018.0
1698414839734.422,23032.0
1698414839754.8394,23017.0
1698414839775.2568,23003.0
1698414839795.6743,22971.0
1698414839816.0916,22958.0
1698414839836.509,22955.0
1698414839856.9265,22952.0
1698414839877.344,22988.0
1698414839897.7617,23030.0
1698414839918.1787,23079.0
1698414839938.5962,23131.0
1698414839959.0137,23173.0
1698414839979.4312,23182.0
1698414839999.8484,23208.0
1698414840020.266,23233.0
1698414840040.683,23252.0
1698414840061.1008,23263.0
1698414840081.518,23255.0
1698414840101.9355,23248.0
1698414840122.353,23212.0
1698414840142.7705,23178.0
1698414840163.188,23116.0
1698414840183.6052,23050.0
1698414840204.0227,22979.0
1698414840224.4402,22916.0
1698414840244.8577,22852.0
1698414840265.275,22783.0
1698414840285.6924,22703.0
1698414840306.11,22650.0
1698414840326.527,22610.0
1698414840346.9446,22596.0
1698414840367.362,22599.0
1698414840387.7795,22578.0
1698414840408.197,22551.0
1698414840428.6145,22519.0
1698414840449.0315,22489.0
1698414840469.4492,22483.0
1698414840489.8667,22484.0
1698414840510.2842,22492.0
1698414840530.7014,22522.0
1698414840551.119,22574.0
1698414840571.5364,22610.0
1698414840591.954,22675.0
1698414840612.371,22705.0
1698414840632.7886,22707.0
1698414840653.206,22700.0
1698414840673.6235,22699.0
1698414840694.041,22702.0
1698414840714.4585,22731.0
1698414840734.8755,22762.0
1698414840755.2932,22800.0
1698414840775.7107,22819.0
1698414840796.128,22842.0
1698414840816.5454,22883.0
1698414840836.963,22911.0
1698414840857.3804,22931.0
1698414840877.7976,22921.0
1698414840898.215,22897.0
1698414840918.6326,22871.0
1698414840939.05,22854.0
1698414840959.4675,22860.0
1698414840979.8848,22882.0
1698414841000.3022,22923.0
1698414841020.7195,22979.0
1698414841041.1372,23003.0
1698414841061.5544,23016.0
1698414841081.972,23011.0
1698414841102.3894,22997.0
1698414841122.807,22975.0
1698414841143.224,22946.0
1698414841163.6416,22899.0
1698414841184.059,22855.0
1698414841204.4766,22818.0
1698414841224.894,22754.0
1698414841245.3113,22712.0
1698414841265.7288,22675.0
1698414841286.1462,22692.0
1698414841306.5637,22736.0
1698414841326.981,22762.0
1698414841347.3984,22791.0
1698414841367.816,22814.0
1698414841388.2334,22825.0
1698414841408.651,22844.0
1698414841429.068,22865.0
1698414841449.4856,22872.0
1698414841469.903,22871.0
1698414841490.3206,22864.0
1698414841510.7378,22862.0
1698414841531.1553,22871.0
1698414841551.5728,22876.0
1698414841571.9902,22891.0
1698414841592.4077,22919.0
1698414841612.825,22961.0
1698414841633.2424,23024.0
1698414841653.66,23071.0
1698414841674.0774,23114.0
1698414841694.4946,23152.0
1698414841714.912,23134.0
1698414841735.3296,23105.0
1698414841755.747,23057.0
1698414841776.1643,22992.0
1698414841796.5818,22950.0
1698414841816.9993,22927.0
1698414841837.4167,22924.0
1698414841857.834,22927.0
1698414841878.2517,22934.0
1698414841898.669,22933.0
1698414841919.0864,22939.0
1698414841939.504,22953.0
1698414841959.9211,22955.0
1698414841980.3386,22945.0
1698414842000.756,22916.0
1698414842021.1736,22891.0
1698414842041.5908,22865.0
1698414842062.0083,22820.0
1698414842082.4258,22774.0
1698414842102.8433,22726.0
1698414842123.2605,22677.0
1698414842143.678,22623.0
1698414842164.0957,22567.0
1698414842184.513,22517.0
1698414842204.9304,22477.0
1698414842225.3477,22439.0
1698414842245.7651,22412.0
1698414842266.1826,22401.0
1698414842286.6,22374.0
1698414842307.017,22370.0
1698414842327.4348,22399.0
1698414842347.8523,22466.0
1698414842368.2698,22544.0
1698414842388.687,22628.0
1698414842409.1045,22688.0
1698414842429.522,22732.0
1698414842449.9397,22749.0
1698414842470.357,22767.0
1698414842490.7742,22796.0
1698414842511.1917,22830.0
1698414842531.6091,22882.0
1698414842552.0266,22915.0
1698414842572.4438,22945.0
1698414842592.861,22984.0
1698414842613.2788,23012.0
1698414842633.6963,23050.0
1698414842654.1135,23076.0
1698414842674.531,23095.0
1698414842694.9485,23082.0
1698414842715.366,23075.0
1698414842735.7834,23066.0
1698414842756.2007,23058.0
1698414842776.6182,23046.0
1698414842797.0356,23029.0
1698414842817.4531,23005.0
1698414842837.8704,22961.0
1698414842858.2878,22922.0
1698414842878.705,22881.0
1698414842899.1228,22835.0
1698414842919.54,22799.0
1698414842939.9575,22757.0
1698414842960.375,22692.0
1698414842980.7925,22621.0
1698414843001.21,22564.0
1698414843021.6272,22534.0
1698414843042.045,22532.0
1698414843062.4622,22569.0
1698414843082.8796,22622.0
1698414843103.2969,22662.0
1698414843123.7144,22706.0
1698414843144.1318,22730.0
1698414843164.5493,22726.0
1698414843184.9666,22698.0
1698414843205.384,22684.0
1698414843225.8015,22778.0
1698414843246.219,22886.0
1698414843266.6365,22905.0
1698414843287.0537,22899.0
1698414843307.4712,22881.0
1698414843327.889,22901.0
1698414843348.3062,22921.0
1698414843368.7234,22919.0
1698414843389.1409,22941.0
1698414843409.5583,22932.0
1698414843429.9758,22895.0
1698414843450.393,22855.0
1698414843470.8103,22838.0
1698414843491.228,22859.0
1698414843511.6455,22888.0
1698414843532.063,22898.0
1698414843552.4802,22896.0
1698414843572.8977,22873.0
1698414843593.3152,22853.0
1698414843613.733,22830.0
1698414843634.15,22809.0
1698414843654.5674,22776.0
1698414843674.9849,22757.0
1698414843695.4023,22724.0
1698414843715.8196,22698.0
1698414843736.237,22655.0
1698414843756.6543,22620.0
1698414843777.072,22569.0
1698414843797.4895,22516.0
1698414843817.9067,22437.0
1698414843838.3242,22350.0
1698414843858.7417,22316.0
1698414843879.1592,22320.0
1698414843899.5764,22354.0
1698414843919.994,22388.0
1698414843940.4114,22434.0
1698414843960.8289,22498.0
1698414843981.246,22581.0
1698414844001.6636,22640.0
1698414844022.081,22689.0
1698414844042.4983,22718.0
1698414844062.916,22732.0
1698414844083.3333,22741.0
1698414844103.7507,22729.0
1698414844124.1682,22732.0
1698414844144.5857,22758.0
1698414844165.003,22788.0
1698414844185.4204,22836.0
1698414844205.838,22855.0
1698414844226.2554,22876.0
1698414844246.6726,22889.0
1698414844267.09,22916.0
1698414844287.5076,22943.0
1698414844307.925,22967.0
1698414844328.3423,22988.0
1698414844348.7598,23007.0
1698414844369.1772,23000.0
1698414844389.5947,22984.0
1698414844410.0122,22956.0
1698414844430.4294,22946.0
1698414844450.847,22963.0
1698414844471.2644,22985.0
1698414844491.682,22986.0
1698414844512.099,23007.0
1698414844532.5166,22988.0
1698414844552.934,22973.0
1698414844573.3516,22967.0
1698414844593.769,22970.0
1698414844614.1863,22977.0
1698414844634.6038,22949.0
1698414844655.0212,22898.0
1698414844675.4387,22860.0
1698414844695.856,22828.0
1698414844716.2734,22830.0
1698414844736.691,22829.0
1698414844757.1084,22843.0
1698414844777.526,22867.0
1698414844797.943,22921.0
1698414844818.3606,22989.0
1698414844838.778,23061.0
1698414844859.1956,23099.0
1698414844879.6128,23127.0
1698414844900.0305,23146.0
1698414844920.4478,23142.0
1698414844940.8652,23112.0
1698414844961.2825,23077.0
1698414844981.7,23072.0
1698414845002.1174,23078.0
1698414845022.535,23095.0
1698414845042.9524,23125.0
1698414845063.3696,23151.0
1698414845083.787,23164.0
1698414845104.2046,23180.0
1698414845124.622,23191.0
1698414845145.0393,23185.0
1698414845165.4568,23170.0
1698414845185.8745,23168.0
1698414845206.2915,23167.0
1698414845226.709,23171.0
1698414845247.1265,23172.0
1698414845267.544,23178.0
1698414845287.9614,23169.0
1698414845308.379,23159.0
1698414845328.796,23140.0
1698414845349.2136,23115.0
1698414845369.631,23065.0
1698414845390.0486,23022.0
1698414845410.4658,22933.0
1698414845430.8833,22842.0
1698414845451.3008,22760.0
1698414845471.7185,22684.0
1698414845492.1355,22642.0
1698414845512.553,22628.0
1698414845532.9705,22624.0
1698414845553.388,22598.0
1698414845573.8054,22537.0
1698414845594.223,22472.0
1698414845614.64,22413.0
1698414845635.0576,22378.0
1698414845655.475,22364.0
1698414845675.8923,22354.0
1698414845696.3098,22358.0
1698414845716.7273,22373.0
1698414845737.1448,22376.0
1698414845757.562,22403.0
1698414845777.9795,22424.0
1698414845798.397,22468.0
1698414845818.8145,22509.0
1698414845839.232,22601.0
1698414845859.6492,22686.0
1698414845880.067,22744.0
1698414845900.484,22763.0
1698414845920.9016,22764.0
1698414845941.3188,22766.0
1698414845961.7363,22770.0
1698414845982.1538,22754.0
1698414846002.5713,22727.0
1698414846022.9883,22720.0
1698414846043.406,22724.0
1698414846063.8235,22757.0
1698414846084.241,22815.0
1698414846104.6584,22864.0
1698414846125.0757,22928.0
1698414846145.4932,22989.0
1698414846165.9106,23000.0
1698414846186.328,23011.0
1698414846206.7454,22999.0
1698414846227.1628,23009.0
1698414846247.5803,23011.0
1698414846267.9978,23000.0
1698414846288.415,22974.0
1698414846308.8325,22978.0
1698414846329.25,23017.0
1698414846349.6675,23078.0
1698414846370.085,23134.0
1698414846390.5022,23179.0
1698414846410.9197,23223.0
1698414846431.3372,23287.0
1698414846451.7546,23334.0
1698414846472.172,23368.0
1698414846492.5894,23381.0
1698414846513.0068,23374.0
1698414846533.4243,23359.0
1698414846553.8416,23349.0
1698414846574.259,23322.0
1698414846594.6765,23319.0
1698414846615.094,23319.0
1698414846635.5117,23337.0
1698414846655.9287,23349.0
1698414846676.3462,23373.0
1698414846696.7637,23397.0
1698414846717.1812,23431.0
1698414846737.5984,23444.0
1698414846758.016,23457.0
1698414846778.433,23461.0
1698414846798.8508,23484.0
1698414846819.268,23515.0
1698414846839.6855,23534.0
1698414846860.103,23544.0
1698414846880.5205,23554.0
1698414846900.938,23552.0
1698414846921.3552,23552.0
1698414846941.7727,23546.0
1698414846962.1902,23556.0
1698414846982.6077,23545.0
1698414847003.025,23532.0
1698414847023.4424,23501.0
1698414847043.86,23448.0
1698414847064.277,23380.0
1698414847084.6946,23306.0
1698414847105.112,23226.0
1698414847125.5295,23149.0
1698414847145.947,23074.0
1698414847166.3645,23006.0
1698414847186.7815,22967.0
1698414847207.1992,22934.0
1698414847227.6167,22903.0
1698414847248.0342,22848.0
1698414847268.4514,22794.0
1698414847288.869,22759.0
1698414847309.2864,22734.0
1698414847329.704,22729.0
1698414847350.121,22744.0
1698414847370.5386,22773.0
1698414847390.956,22790.0
1698414847411.3735,22801.0
1698414847431.791,22797.0
1698414847452.2085,22792.0
1698414847472.6255,22809.0
1698414847493.0432,22825.0
1698414847513.4607,22858.0
1698414847533.878,22907.0
1698414847554.2954,22926.0
1698414847574.713,22932.0
1698414847595.1304,22926.0
1698414847615.5476,22904.0
1698414847635.965,22910.0
1698414847656.3826,22906.0
1698414847676.8,22919.0
1698414847697.2175,22915.0
1698414847717.6348,22915.0
1698414847738.0522,22911.0
1698414847758.4695,22924.0
1698414847778.8872,22942.0
1698414847799.3044,22967.0
1698414847819.722,22991.0
1698414847840.1394,23035.0
1698414847860.557,23057.0
1698414847880.974,23069.0
1698414847901.3916,23074.0
1698414847921.809,23077.0
1698414847942.2266,23074.0
1698414847962.644,23077.0
1698414847983.0613,23066.0
1698414848003.4788,23044.0
1698414848023.8962,23021.0
1698414848044.3137,23001.0
1698414848064.731,22994.0
1698414848085.1484,22994.0
1698414848105.566,22985.0
1698414848125.9834,22988.0
1698414848146.401,22998.0
1698414848166.818,23013.0
1698414848187.2356,23034.0
1698414848207.653,23031.0
1698414848228.0706,23038.0
1698414848248.4878,23035.0
1698414848268.9053,23047.0
1698414848289.3228,23058.0
1698414848309.7402,23078.0
1698414848330.1577,23088.0
1698414848350.575,23100.0
1698414848370.9924,23087.0
1698414848391.41,23080.0
1698414848411.8274,23073.0
1698414848432.2446,23082.0
1698414848452.662,23116.0
1698414848473.0796,23182.0
1698414848493.497,23238.0
1698414848513.9143,23270.0
1698414848534.3318,23290.0
1698414848554.7493,23319.0
1698414848575.1667,23349.0
1698414848595.584,23345.0
1698414848616.0017,23333.0
1698414848636.419,23315.0
1698414848656.8364,23302.0
1698414848677.254,23275.0
1698414848697.6711,23250.0
1698414848718.0886,23231.0
1698414848738.506,23206.0
1698414848758.9236,23187.0
1698414848779.3408,23166.0
1698414848799.7583,23139.0
1698414848820.1758,23126.0
1698414848840.5933,23090.0
1698414848861.0105,23073.0
1698414848881.428,23015.0
1698414848901.8457,22941.0
1698414848922.263,22855.0
1698414848942.6804,22793.0
1698414848963.0977,22718.0
1698414848983.5151,22648.0
1698414849003.9326,22592.0
1698414849024.35,22540.0
1698414849044.767,22501.0
1698414849065.1848,22478.0
1698414849085.6023,22445.0
1698414849106.0198,22457.0
1698414849126.437,22458.0
1698414849146.8545,22466.0
1698414849167.272,22467.0
1698414849187.6897,22465.0
1698414849208.107,22453.0
1698414849228.5242,22451.0
1698414849248.9417,22446.0
1698414849269.3591,22456.0
1698414849289.7766,22446.0
1698414849310.1938,22473.0
1698414849330.611,22504.0
1698414849351.0288,22554.0
1698414849371.4463,22610.0
1698414849391.8635,22676.0
1698414849412.281,22702.0
1698414849432.6985,22702.0
1698414849453.116,22728.0
1698414849473.5334,22732.0
1698414849493.9507,22732.0
1698414849514.3682,22741.0
1698414849534.7856,22740.0
1698414849555.2031,22750.0
1698414849575.6204,22765.0
1698414849596.0378,22781.0
1698414849616.455,22822.0
1698414849636.8728,22851.0
1698414849657.29,22858.0
1698414849677.7075,22858.0
1698414849698.125,22852.0
1698414849718.5425,22833.0
1698414849738.96,22824.0
1698414849759.3772,22820.0
1698414849779.795,22806.0
1698414849800.2122,22776.0
1698414849820.6296,22743.0
1698414849841.0469,22721.0
1698414849861.4644,22707.0
1698414849881.8818,22707.0
1698414849902.2993,22708.0
1698414849922.7166,22713.0
1698414849943.134,22744.0
1698414849963.5515,22798.0
1698414849983.969,22829.0
1698414850004.3865,22847.0
1698414850024.8037,22850.0
1698414850045.2212,22834.0
1698414850065.639,22844.0
1698414850086.0562,22871.0
1698414850106.4734,22893.0
1698414850126.8909,22941.0
1698414850147.3083,22968.0
1698414850167.7258,22999.0
1698414850188.143,23017.0
1698414850208.5603,23040.0
1698414850228.978,23071.0
1698414850249.3955,23094.0
1698414850269.813,23094.0
1698414850290.2302,23094.0
1698414850310.6477,23105.0
1698414850331.0652,23117.0
1698414850351.483,23124.0
1698414850371.9,23127.0
1698414850392.3174,23159.0
1698414850412.7349,23180.0
1698414850433.1523,23185.0
1698414850453.5696,23198.0
1698414850473.987,23191.0
1698414850494.4043,23188.0
1698414850514.822,23183.0
1698414850535.2395,23144.0
1698414850555.6567,23116.0
1698414850576.0742,23081.0
1698414850596.4917,23041.0
1698414850616.9092,23002.0
1698414850637.3264,22963.0
1698414850657.744,22912.0
1698414850678.1614,22864.0
1698414850698.5789,22814.0
1698414850718.996,22773.0
1698414850739.4136,22760.0
1698414850759.831,22767.0
1698414850780.2483,22809.0
1698414850800.666,22855.0
1698414850821.0833,22888.0
1698414850841.5007,22919.0
1698414850861.9182,22923.0
1698414850882.3357,22905.0
1698414850902.753,22895.0
1698414850923.1704,22840.0
1698414850943.588,22882.0
1698414850964.0054,22887.0
1698414850984.4226,22886.0
1698414851004.84,22942.0
1698414851025.2576,22936.0
1698414851045.675,22961.0
1698414851066.0923,22982.0
1698414851086.5098,23015.0
1698414851106.9272,23037.0
1698414851127.3447,23040.0
1698414851147.7622,23046.0
1698414851168.1794,23050.0
1698414851188.597,23042.0
1698414851209.0144,23035.0
1698414851229.432,23051.0
1698414851249.849,23061.0
1698414851270.2666,23085.0
1698414851290.684,23105.0
1698414851311.1016,23107.0
1698414851331.519,23112.0
1698414851351.9363,23095.0
1698414851372.3538,23084.0
1698414851392.7712,23041.0
1698414851413.1887,23014.0
1698414851433.606,22973.0
1698414851454.0234,22921.0
1698414851474.441,22864.0
1698414851494.8584,22801.0
1698414851515.276,22737.0
1698414851535.693,22708.0
1698414851556.1106,22707.0
1698414851576.528,22750.0
1698414851596.9456,22783.0
1698414851617.3628,22849.0
1698414851637.7805,22916.0
1698414851658.1978,22972.0
1698414851678.6152,22999.0
1698414851699.0325,23000.0
1698414851719.45,22974.0
1698414851739.8674,22927.0
1698414851760.285,22869.0
1698414851780.7024,22858.0
1698414851801.1196,22871.0
1698414851821.537,22924.0
1698414851841.9546,22985.0
1698414851862.372,23039.0
1698414851882.7893,23061.0
1698414851903.2068,23087.0
1698414851923.6245,23126.0
1698414851944.0415,23147.0
1698414851964.459,23183.0
1698414851984.8765,23211.0
1698414852005.294,23248.0
1698414852025.7114,23261.0
1698414852046.129,23261.0
1698414852066.546,23268.0
1698414852086.9636,23269.0
1698414852107.381,23267.0
1698414852127.7986,23265.0
1698414852148.2158,23238.0
1698414852168.6333,23219.0
1698414852189.0508,23200.0
1698414852209.4685,23175.0
1698414852229.8855,23144.0
1698414852250.303,23102.0
1698414852270.7205,23023.0
1698414852291.138,22964.0
1698414852311.5554,22886.0
1698414852331.973,22816.0
1698414852352.39,22750.0
1698414852372.8076,22660.0
1698414852393.225,22577.0
1698414852413.6423,22539.0
1698414852434.0598,22513.0
1698414852454.4773,22527.0
1698414852474.8948,22576.0
1698414852495.312,22640.0
1698414852515.7295,22702.0
1698414852536.147,22757.0
1698414852556.5645,22776.0
1698414852576.982,22792.0
1698414852597.3992,22790.0
1698414852617.817,22797.0
1698414852638.234,22809.0
1698414852658.6516,22826.0
1698414852679.0688,22849.0
1698414852699.4863,22851.0
1698414852719.9038,22863.0
1698414852740.3213,22887.0
1698414852760.7383,22907.0
1698414852781.156,22918.0
1698414852801.5735,22920.0
1698414852821.991,22914.0
1698414852842.4084,22912.0
1698414852862.8257,22897.0
1698414852883.2432,22906.0
1698414852903.6606,22877.0
1698414852924.078,22888.0
1698414852944.4954,22887.0
1698414852964.9128,22907.0
1698414852985.3303,22930.0
1698414853005.7478,22964.0
1698414853026.165,23021.0
1698414853046.5825,23047.0
1698414853067.0,23060.0
1698414853087.4175,23033.0
1698414853107.835,23011.0
1698414853128.2522,22984.0
1698414853148.6697,22976.0
1698414853169.0872,22976.0
1698414853189.5046,22955.0
1698414853209.922,22938.0
1698414853230.3394,22933.0
1698414853250.7568,22974.0
1698414853271.1743,23033.0
1698414853291.5916,23069.0
1698414853312.009,23099.0
1698414853332.4265,23107.0
1698414853352.844,23104.0
1698414853373.2617,23095.0
1698414853393.6787,23093.0
1698414853414.0962,23081.0
1698414853434.5137,23072.0
1698414853454.9312,23059.0
1698414853475.3484,23052.0
1698414853495.766,23054.0
1698414853516.183,23054.0
1698414853536.6008,23048.0
1698414853557.018,23067.0
1698414853577.4355,23086.0
1698414853597.853,23136.0
1698414853618.2705,23188.0
1698414853638.688,23246.0
1698414853659.1052,23274.0
1698414853679.5227,23296.0
1698414853699.9402,23309.0
1698414853720.3577,23338.0
1698414853740.775,23341.0
1698414853761.1924,23352.0
1698414853781.61,23378.0
1698414853802.027,23392.0
1698414853822.4446,23391.0
1698414853842.862,23389.0
1698414853863.2795,23388.0
1698414853883.697,22937.0
1698414853904.1145,22974.0
1698414853924.5315,23022.0
1698414853944.9492,23089.0
1698414853965.3667,23107.0
1698414853985.7842,23127.0
1698414854006.2014,23134.0
1698414854026.619,23122.0
1698414854047.0364,23104.0
1698414854067.454,23069.0
1698414854087.871,23109.0
1698414854108.2886,23129.0
1698414854128.706,23135.0
1698414854149.1235,23239.0
1698414854169.541,23187.0
1698414854189.9585,23160.0
1698414854210.3755,22937.0
1698414854230.7932,22974.0
1698414854251.2107,23022.0
1698414854271.628,23089.0
1698414854292.0454,23107.0
1698414854312.463,23127.0
1698414854332.8804,23134.0
1698414854353.2976,23122.0
1698414854373.715,23104.0
1698414854394.1326,23069.0
1698414854414.55,23109.0
1698414854434.9675,23129.0
1698414854455.3848,23135.0
1698414854475.8022,23239.0
1698414854496.2195,23187.0
1698414854516.6372,23160.0
1698414854537.0544,23178.0
1698414854557.472,23187.0
1698414854577.8894,23184.0
1698414854598.307,23164.0
1698414854618.724,23150.0
1698414854639.1416,23123.0
1698414854659.559,23131.0
1698414854679.9766,23106.0
1698414854700.394,23119.0
1698414854720.8113,23173.0
1698414854741.2288,23211.0
1698414854761.6462,23262.0
1698414854782.0637,23300.0
1698414854802.481,23330.0
1698414854822.8984,23341.0
1698414854843.316,23329.0
1698414854863.7334,23291.0
1698414854884.151,23244.0
1698414854904.568,23206.0
1698414854924.9856,23152.0
1698414854945.403,23102.0
1698414854965.8206,23065.0
1698414854986.2378,23010.0
1698414855006.6553,22978.0
1698414855027.0728,22987.0
1698414855047.4902,23029.0
1698414855067.9077,23084.0
1698414855088.325,23157.0
1698414855108.7424,23188.0
1698414855129.16,23216.0
1698414855149.5774,23206.0
1698414855169.9946,23168.0
1698414855190.412,23157.0
1698414855210.8296,23164.0
1698414855231.247,23192.0
1698414855251.6643,23230.0
1698414855272.0818,23282.0
1698414855292.4993,23338.0
1698414855312.9167,23370.0
1698414855333.334,23412.0
1698414855353.7517,23444.0
1698414855374.169,23467.0
1698414855394.5864,23487.0
1698414855415.004,23490.0
1698414855435.4211,23495.0
1698414855455.8386,23506.0
1698414855476.256,23527.0
1698414855496.6736,23545.0
1698414855517.0908,23559.0
1698414855537.5083,23546.0
1698414855557.9258,23541.0
1698414855578.3433,23543.0
1698414855598.7605,23537.0
1698414855619.178,23541.0
1698414855639.5957,23527.0
1698414855660.013,23515.0
1698414855680.4304,23511.0
1698414855700.8477,23516.0
1698414855721.2651,23529.0
1698414855741.6826,23535.0
1698414855762.1,23537.0
1698414855782.517,23545.0
1698414855802.9348,23541.0
1698414855823.3523,23542.0
1698414855843.7698,23525.0
1698414855864.187,23481.0
1698414855884.6045,23414.0
1698414855905.022,23347.0
1698414855925.4397,23291.0
1698414855945.857,23261.0
1698414855966.2742,23266.0
1698414855986.6917,23303.0
1698414856007.1091,23323.0
1698414856027.5266,23317.0
1698414856047.9438,23306.0
1698414856068.361,23292.0
1698414856088.7788,23282.0
1698414856109.1963,23277.0
1698414856129.6135,23284.0
1698414856150.031,23296.0
1698414856170.4485,23329.0
1698414856190.866,23383.0
1698414856211.2834,23420.0
1698414856231.7007,23448.0
1698414856252.1182,23472.0
1698414856272.5356,23481.0
1698414856292.9531,23504.0
1698414856313.3704,23501.0
1698414856333.7878,23488.0
1698414856354.205,23462.0
1698414856374.6228,23432.0
1698414856395.04,23428.0
1698414856415.4575,23435.0
1698414856435.875,23448.0
1698414856456.2925,23465.0
1698414856476.71,23472.0
1698414856497.1272,23457.0
1698414856517.545,23428.0
1698414856537.9622,23399.0
1698414856558.3796,23395.0
1698414856578.7969,23401.0
1698414856599.2144,23390.0
1698414856619.6318,23375.0
1698414856640.0493,23385.0
1698414856660.4666,23421.0
1698414856680.884,23463.0
1698414856701.3015,23498.0
1698414856721.719,23550.0
1698414856742.1365,23584.0
1698414856762.5537,23612.0
1698414856782.9712,23644.0
1698414856803.389,23681.0
1698414856823.8062,23702.0
1698414856844.2234,23697.0
1698414856864.6409,23679.0
1698414856885.0583,23671.0
1698414856905.4758,23673.0
1698414856925.893,23679.0
1698414856946.3103,23687.0
1698414856966.728,23708.0
1698414856987.1455,23732.0
1698414857007.563,23768.0
1698414857027.9802,23777.0
1698414857048.3977,23778.0
1698414857068.8152,23794.0
1698414857089.233,23797.0
1698414857109.65,23817.0
1698414857130.0674,23812.0
1698414857150.4849,23823.0
1698414857170.9023,23825.0
1698414857191.3196,23833.0
1698414857211.737,23835.0
1698414857232.1543,23832.0
1698414857252.572,23814.0
1698414857272.9895,23793.0
1698414857293.4067,23775.0
1698414857313.8242,23757.0
1698414857334.2417,23728.0
1698414857354.6592,23708.0
1698414857375.0764,23668.0
1698414857395.494,23629.0
1698414857415.9114,23594.0
1698414857436.3289,23547.0
1698414857456.746,23517.0
1698414857477.1636,23496.0
1698414857497.581,23473.0
1698414857517.9983,23401.0
1698414857538.416,23337.0
1698414857558.8333,23270.0
1698414857579.2507,23205.0
1698414857599.6682,23163.0
1698414857620.0857,23134.0
1698414857640.503,23116.0
1698414857660.9204,23105.0
1698414857681.338,23103.0
1698414857701.7554,23087.0
1698414857722.1726,23040.0
1698414857742.59,22989.0
1698414857763.0076,22928.0
1698414857783.425,22874.0
1698414857803.8423,22787.0
1698414857824.2598,22675.0
1698414857844.6772,22559.0
1698414857865.0947,22473.0
1698414857885.5122,22366.0
1698414857905.9294,22232.0
1698414857926.347,22105.0
1698414857946.7644,22019.0
1698414857967.182,21933.0
1698414857987.599,21883.0
1698414858008.0166,21848.0
1698414858028.434,21805.0
1698414858048.8516,21760.0
1698414858069.269,21713.0
1698414858089.6863,21666.0
1698414858110.1038,21628.0
1698414858130.5212,21567.0
1698414858150.9387,21510.0
1698414858171.356,21460.0
1698414858191.7734,21415.0
1698414858212.191,21365.0
1698414858232.6084,21315.0
1698414858253.026,21286.0
1698414858273.443,21266.0
1698414858293.8606,21247.0
1698414858314.278,21223.0
1698414858334.6956,21190.0
1698414858355.1128,21165.0
1698414858375.5305,21143.0
1698414858395.9478,21122.0
1698414858416.3652,21099.0
1698414858436.7825,21071.0
1698414858457.2,21026.0
1698414858477.6174,20989.0
1698414858498.035,20952.0
1698414858518.4524,20947.0
1698414858538.8696,20902.0
1698414858559.287,20888.0
1698414858579.7046,20920.0
1698414858600.122,20826.0
1698414858620.5393,20818.0
1698414858640.9568,20790.0
1698414858661.3745,20772.0
1698414858681.7915,20741.0
1698414858702.209,20771.0
1698414858722.6265,20754.0
1698414858743.044,20757.0
1698414858763.4614,20755.0
1698414858783.879,20756.0
1698414858804.296,20747.0
1698414858824.7136,20752.0
1698414858845.131,20745.0
1698414858865.5486,20743.0
1698414858885.9658,20751.0
1698414858906.3833,20729.0
1698414858926.8008,20730.0
1698414858947.2185,20705.0
1698414858967.6355,20665.0
1698414858988.053,20663.0
1698414859008.4705,20639.0
1698414859028.888,20616.0
1698414859049.3054,20608.0
1698414859069.723,20587.0
1698414859090.14,20583.0
1698414859110.5576,20584.0
1698414859130.975,20571.0
1698414859151.3923,20575.0
1698414859171.8098,20564.0
1698414859192.2273,20558.0
1698414859212.6448,20558.0
1698414859233.062,20561.0
1698414859253.4795,20551.0
1698414859273.897,20563.0
1698414859294.3145,20561.0
1698414859314.732,20557.0
1698414859335.1492,20550.0
1698414859355.567,20569.0
1698414859375.984,20560.0
1698414859396.4016,20573.0
1698414859416.8188,20569.0
1698414859437.2363,20566.0
1698414859457.6538,20556.0
1698414859478.0713,20550.0
1698414859498.4883,20536.0
1698414859518.906,20531.0
1698414859539.3235,20525.0
1698414859559.741,20521.0
1698414859580.1584,20516.0
1698414859600.5757,20519.0
1698414859620.9932,20523.0
1698414859641.4106,20512.0
1698414859661.828,20521.0
1698414859682.2454,20525.0
1698414859702.6628,20536.0
1698414859723.0803,20525.0
1698414859743.4978,20536.0
1698414859763.915,20550.0
1698414859784.3325,20547.0
1698414859804.75,20543.0
1698414859825.1675,20560.0
1698414859845.585,20561.0
1698414859866.0022,20566.0
1698414859886.4197,20574.0
1698414859906.8372,20591.0
1698414859927.2546,20576.0
1698414859947.672,20574.0
1698414859968.0894,20574.0
1698414859988.5068,20570.0
1698414860008.9243,20554.0
1698414860029.3416,20557.0
1698414860049.759,20547.0
1698414860070.1765,20543.0
1698414860090.594,20545.0
1698414860111.0117,20536.0
1698414860131.4287,20541.0
1698414860151.8462,20530.0
1698414860172.2637,20537.0
1698414860192.6812,20535.0
1698414860213.0984,20529.0
1698414860233.516,20528.0
1698414860253.933,20541.0
1698414860274.3508,20543.0
1698414860294.768,20558.0
1698414860315.1855,20556.0
1698414860335.603,20575.0
1698414860356.0205,20575.0
1698414860376.438,20562.0
1698414860396.8552,20576.0
1698414860417.2727,20561.0
1698414860437.6902,20555.0
1698414860458.1077,20564.0
1698414860478.525,20577.0
1698414860498.9424,20571.0
1698414860519.36,20584.0
1698414860539.777,20569.0
1698414860560.1946,20559.0
1698414860580.612,20563.0
1698414860601.0295,20562.0
1698414860621.447,20568.0
1698414860641.8645,20563.0
1698414860662.2815,20567.0
1698414860682.6992,20560.0
1698414860703.1167,20563.0
1698414860723.5342,20561.0
1698414860743.9514,20562.0
1698414860764.369,20559.0
1698414860784.7864,20560.0
1698414860805.204,20558.0
1698414860825.621,20564.0
1698414860846.0386,20552.0
1698414860866.456,20558.0
1698414860886.8735,20543.0
1698414860907.291,20554.0
1698414860927.7085,20555.0
1698414860948.1255,20558.0
1698414860968.5432,20556.0
1698414860988.9607,20548.0
1698414861009.378,20552.0
1698414861029.7954,20539.0
1698414861050.213,20528.0
1698414861070.6304,20495.0
1698414861091.0476,20503.0
1698414861111.465,20503.0
1698414861131.8826,20498.0
1698414861152.3,20500.0
1698414861172.7175,20496.0
1698414861193.1348,20491.0
1698414861213.5522,20494.0
1698414861233.9695,20491.0
1698414861254.3872,20474.0
1698414861274.8044,20497.0
1698414861295.222,20486.0
1698414861315.6394,20490.0
1698414861336.057,20478.0
1698414861356.474,20487.0
1698414861376.8916,20465.0
1698414861397.309,20473.0
1698414861417.7266,20471.0
1698414861438.144,20457.0
1698414861458.5613,20459.0
1698414861478.9788,20458.0
1698414861499.3962,20451.0
1698414861519.8137,20453.0
1698414861540.231,20450.0
1698414861560.6484,20449.0
1698414861581.066,20440.0
1698414861601.4834,20443.0
1698414861621.901,20452.0
1698414861642.318,20454.0
1698414861662.7356,20456.0
1698414861683.153,20458.0
1698414861703.5706,20459.0
1698414861723.9878,20465.0
1698414861744.4053,20468.0
1698414861764.8228,20476.0
1698414861785.2402,20488.0
1698414861805.6577,20489.0
1698414861826.075,20494.0
1698414861846.4924,20495.0
1698414861866.91,20502.0
1698414861887.3274,20491.0
1698414861907.7446,20507.0
1698414861928.162,20518.0
1698414861948.5796,20524.0
1698414861968.997,20532.0
1698414861989.4143,20542.0
1698414862009.8318,20547.0
1698414862030.2493,20545.0
1698414862050.6667,20523.0
1698414862071.084,20504.0
1698414862091.5017,20498.0
1698414862111.919,20460.0
1698414862132.3364,20467.0
1698414862152.754,20449.0
1698414862173.1711,20452.0
1698414862193.5886,20427.0
1698414862214.006,20431.0
1698414862234.4236,20433.0
1698414862254.8408,20438.0
1698414862275.2583,20439.0
1698414862295.6758,20430.0
1698414862316.0933,20443.0
1698414862336.5105,20436.0
1698414862356.928,20433.0
1698414862377.3457,20442.0
1698414862397.763,20435.0
1698414862418.1804,20438.0
1698414862438.5977,20440.0
1698414862459.0151,20441.0
1698414862479.4326,20445.0
1698414862499.85,20450.0
1698414862520.267,20455.0
1698414862540.6848,20438.0
1698414862561.1023,20454.0
1698414862581.5198,20435.0
1698414862601.937,20412.0
1698414862622.3545,20437.0
1698414862642.772,20427.0
1698414862663.1897,20435.0
1698414862683.607,20417.0
1698414862704.0242,20425.0
1698414862724.4417,20424.0
1698414862744.8591,20430.0
1698414862765.2766,20418.0
1698414862785.6938,20421.0
1698414862806.111,20434.0
1698414862826.5288,20436.0
1698414862846.9463,20445.0
1698414862867.3635,20449.0
1698414862887.781,20453.0
1698414862908.1985,20461.0
1698414862928.616,20472.0
1698414862949.0334,20473.0
1698414862969.4507,20476.0
1698414862989.8682,20480.0
1698414863010.2856,20487.0
1698414863030.7031,20490.0
1698414863051.1204,20483.0
1698414863071.5378,20494.0
1698414863091.955,20479.0
1698414863112.3728,20485.0
1698414863132.79,20480.0
1698414863153.2075,20470.0
1698414863173.625,20465.0
1698414863194.0425,20458.0
1698414863214.46,20460.0
1698414863234.8772,20452.0
1698414863255.295,20455.0
1698414863275.7122,20460.0
1698414863296.1296,20476.0
1698414863316.5469,20460.0
1698414863336.9644,20480.0
1698414863357.3818,20465.0
1698414863377.7993,20492.0
1698414863398.2166,20482.0
1698414863418.634,20497.0
1698414863439.0515,20502.0
1698414863459.469,20510.0
1698414863479.8865,20506.0
1698414863500.3037,20529.0
1698414863520.7212,20532.0
1698414863541.139,20528.0
1698414863561.5562,20518.0
1698414863581.9734,20522.0
1698414863602.3909,20534.0
1698414863622.8083,20538.0
1698414863643.2258,20533.0
1698414863663.643,20524.0
1698414863684.0603,20528.0
1698414863704.478,20538.0
1698414863724.8955,20528.0
1698414863745.313,20512.0
1698414863765.7302,20516.0
1698414863786.1477,20523.0
1698414863806.5652,20515.0
1698414863826.983,20505.0
1698414863847.4,20537.0
1698414863867.8174,20510.0
1698414863888.2349,20524.0
1698414863908.6523,20522.0
1698414863929.0696,20548.0
1698414863949.487,20535.0
1698414863969.9043,20549.0
1698414863990.322,20561.0
1698414864010.7395,20568.0
1698414864031.1567,20564.0
1698414864051.5742,20575.0
1698414864071.9917,20592.0
1698414864092.4092,20582.0
1698414864112.8264,20586.0
1698414864133.244,20570.0
1698414864153.6614,20582.0
1698414864174.0789,20603.0
1698414864194.496,20587.0
1698414864214.9136,20588.0
1698414864235.331,20585.0
1698414864255.7483,20588.0
1698414864276.166,20561.0
1698414864296.5833,20568.0
1698414864317.0007,20570.0
1698414864337.4182,20575.0
1698414864357.8357,20573.0
1698414864378.253,20580.0
1698414864398.6704,20581.0
1698414864419.088,20585.0
1698414864439.5054,20597.0
1698414864459.9226,20596.0
1698414864480.34,20602.0
1698414864500.7576,20602.0
1698414864521.175,20609.0
1698414864541.5923,20605.0
1698414864562.0098,20609.0
1698414864582.4272,20614.0
1698414864602.8447,20608.0
1698414864623.2622,20615.0
1698414864643.6794,20614.0
1698414864664.097,20615.0
1698414864684.5144,20608.0
1698414864704.932,20589.0
1698414864725.349,20579.0
1698414864745.7666,20554.0
1698414864766.184,20529.0
1698414864786.6016,20513.0
1698414864807.019,20498.0
1698414864827.4363,20492.0
1698414864847.8538,20494.0
1698414864868.2712,20509.0
1698414864888.6887,20517.0
1698414864909.106,20536.0
1698414864929.5234,20543.0
1698414864949.941,20552.0
1698414864970.3584,20574.0
1698414864990.776,20569.0
