timestamp,ppg
1698744543.0202837,25568.0
1698744543.040781,25580.0
1698744543.0612783,25554.0
1698744543.081776,25491.0
1698744543.1022732,25469.0
1698744543.1227705,25445.0
1698744543.1432679,25409.0
1698744543.1637652,25373.0
1698744543.1842625,25337.0
1698744543.2047598,25320.0
1698744543.2252572,25258.0
1698744543.2457547,25186.0
1698744543.266252,25055.0
1698744543.2867494,25039.0
1698744543.3072467,25032.0
1698744543.327744,24970.0
1698744543.3482413,24985.0
1698744543.3687382,24925.0
1698744543.389236,24938.0
1698744543.4097333,24880.0
1698744543.4302306,24877.0
1698744543.450728,24808.0
1698744543.471225,24780.0
1698744543.4917228,24790.0
1698744543.51222,24731.0
1698744543.5327175,24717.0
1698744543.5532148,24702.0
1698744543.573712,24703.0
1698744543.5942097,24700.0
1698744543.6147068,24708.0
1698744543.635204,24724.0
1698744543.6557014,24733.0
1698744543.676199,24772.0
1698744543.6966963,24747.0
1698744543.7171936,24748.0
1698744543.737691,24781.0
1698744543.7581882,24722.0
1698744543.7786856,24743.0
1698744543.799183,24708.0
1698744543.8196805,24755.0
1698744543.8401775,24746.0
1698744543.860675,24807.0
1698744543.8811724,24796.0
1698744543.9016697,24847.0
1698744543.922167,24861.0
1698744543.9426644,24856.0
1698744543.9631617,24810.0
1698744543.9836593,24784.0
1698744544.0041566,24802.0
1698744544.024654,24696.0
1698744544.0451512,24704.0
1698744544.0656486,24683.0
1698744544.0861456,24692.0
1698744544.106643,24720.0
1698744544.1271405,24735.0
1698744544.1476378,24778.0
1698744544.1681352,24755.0
1698744544.1886325,24822.0
1698744544.2091298,24849.0
1698744544.2296271,24890.0
1698744544.2501245,24948.0
1698744544.270622,25029.0
1698744544.2911193,25095.0
1698744544.3116167,25140.0
1698744544.332114,25180.0
1698744544.352611,25222.0
1698744544.3731086,25192.0
1698744544.393606,25227.0
1698744544.4141035,25186.0
1698744544.4346008,25202.0
1698744544.455098,25190.0
1698744544.4755957,25182.0
1698744544.4960928,25139.0
1698744544.51659,25178.0
1698744544.5370874,25142.0
1698744544.557585,25177.0
1698744544.5780826,25170.0
1698744544.5985796,25133.0
1698744544.619077,25147.0
1698744544.6395743,25062.0
1698744544.6600716,25077.0
1698744544.680569,25079.0
1698744544.7010665,25005.0
1698744544.7215638,24961.0
1698744544.7420611,24929.0
1698744544.7625585,24888.0
1698744544.7830558,24886.0
1698744544.8035529,24826.0
1698744544.8240502,24804.0
1698744544.8445475,24815.0
1698744544.865045,24768.0
1698744544.8855424,24767.0
1698744544.9060397,24791.0
1698744544.926537,24750.0
1698744544.9470344,24780.0
1698744544.9675314,24774.0
1698744544.988029,24732.0
1698744545.0085266,24720.0
1698744545.029024,24680.0
1698744545.0495212,24711.0
1698744545.0700185,24699.0
1698744545.090516,24722.0
1698744545.1110132,24712.0
1698744545.1315105,24680.0
1698744545.152008,24675.0
1698744545.1725054,24679.0
1698744545.1930027,24709.0
1698744545.2135,24702.0
1698744545.2339973,24672.0
1698744545.2544947,24706.0
1698744545.274992,24661.0
1698744545.2954895,24658.0
1698744545.3159869,24630.0
1698744545.336484,24651.0
1698744545.3569815,24624.0
1698744545.3774788,24565.0
1698744545.3979762,24538.0
1698744545.4184735,24525.0
1698744545.438971,24516.0
1698744545.4594686,24547.0
1698744545.4799657,24535.0
1698744545.500463,24530.0
1698744545.52096,24497.0
1698744545.5414574,24487.0
1698744545.5619547,24485.0
1698744545.5824523,24519.0
1698744545.6029496,24502.0
1698744545.623447,24503.0
1698744545.6439443,24506.0
1698744545.6644416,24519.0
1698744545.684939,24544.0
1698744545.7054362,24542.0
1698744545.7259336,24519.0
1698744545.746431,24510.0
1698744545.7669284,24518.0
1698744545.7874258,24544.0
1698744545.807923,24516.0
1698744545.8284204,24511.0
1698744545.8489175,24517.0
1698744545.869415,24555.0
1698744545.8899126,24517.0
1698744545.91041,24519.0
1698744545.9309072,24520.0
1698744545.9514043,24556.0
1698744545.9719021,24554.0
1698744545.9923992,24523.0
1698744546.0128965,24534.0
1698744546.033394,24574.0
1698744546.0538914,24555.0
1698744546.074389,24609.0
1698744546.094886,24580.0
1698744546.1153834,24587.0
1698744546.1358807,24584.0
1698744546.156378,24617.0
1698744546.1768756,24581.0
1698744546.197373,24586.0
1698744546.2178702,24619.0
1698744546.2383673,24588.0
1698744546.2588646,24582.0
1698744546.279362,24565.0
1698744546.2998593,24579.0
1698744546.3203568,24519.0
1698744546.3408542,24498.0
1698744546.3613515,24483.0
1698744546.3818488,24473.0
1698744546.4023461,24464.0
1698744546.4228435,24491.0
1698744546.4433408,24465.0
1698744546.4638383,24455.0
1698744546.4843357,24450.0
1698744546.504833,24472.0
1698744546.5253303,24443.0
1698744546.5458276,24479.0
1698744546.566325,24481.0
1698744546.5868225,24475.0
1698744546.6073196,24479.0
1698744546.6278172,24448.0
1698744546.6483145,24481.0
1698744546.6688118,24481.0
1698744546.6893091,24454.0
1698744546.7098064,24460.0
1698744546.7303038,24465.0
1698744546.750801,24496.0
1698744546.7712986,24506.0
1698744546.791796,24482.0
1698744546.8122933,24494.0
1698744546.8327904,24494.0
1698744546.853288,24537.0
1698744546.8737853,24513.0
1698744546.8942826,24520.0
1698744546.9147801,24524.0
1698744546.935277,24495.0
1698744546.9557748,24527.0
1698744546.9762719,24518.0
1698744546.9967692,24478.0
1698744547.0172665,24504.0
1698744547.0377638,24502.0
1698744547.0582616,24486.0
1698744547.0787587,24510.0
1698744547.099256,24502.0
1698744547.1197534,24498.0
1698744547.1402507,24503.0
1698744547.160748,24473.0
1698744547.1812453,24438.0
1698744547.201743,24481.0
1698744547.2222402,24503.0
1698744547.2427375,24477.0
1698744547.2632349,24478.0
1698744547.2837322,24478.0
1698744547.3042295,24439.0
1698744547.3247268,24509.0
1698744547.3452241,24468.0
1698744547.3657217,24468.0
1698744547.386219,24462.0
1698744547.4067163,24494.0
1698744547.4272137,24450.0
1698744547.447711,24481.0
1698744547.4682086,24479.0
1698744547.4887056,24438.0
1698744547.5092032,24429.0
1698744547.5297005,24456.0
1698744547.5501978,24416.0
1698744547.5706952,24443.0
1698744547.5911925,24412.0
1698744547.6116898,24405.0
1698744547.6321871,24436.0
1698744547.6526847,24436.0
1698744547.6731818,24429.0
1698744547.693679,24423.0
1698744547.7141764,24416.0
1698744547.7346737,24406.0
1698744547.755171,24397.0
1698744547.7756684,24347.0
1698744547.796166,24328.0
1698744547.816663,24312.0
1698744547.8371606,24332.0
1698744547.857658,24313.0
1698744547.8781552,24268.0
1698744547.8986526,24246.0
1698744547.9191499,24240.0
1698744547.9396477,24221.0
1698744547.9601448,24233.0
1698744547.980642,24204.0
1698744548.0011394,24167.0
1698744548.0216367,24143.0
1698744548.042134,24091.0
1698744548.0626311,24108.0
1698744548.083129,24065.0
1698744548.1036263,24110.0
1698744548.1241236,24107.0
1698744548.144621,24068.0
1698744548.1651182,24025.0
1698744548.1856155,24082.0
1698744548.2061129,24041.0
1698744548.2266102,24042.0
1698744548.2471077,24078.0
1698744548.267605,24040.0
1698744548.2881024,24070.0
1698744548.3085997,24025.0
1698744548.329097,24052.0
1698744548.3495944,24012.0
1698744548.3700914,24039.0
1698744548.390589,24048.0
1698744548.4110863,24054.0
1698744548.4315834,24015.0
1698744548.452081,24045.0
1698744548.4725783,23997.0
1698744548.4930756,24017.0
1698744548.513573,23971.0
1698744548.5340705,23960.0
1698744548.554568,23979.0
1698744548.5750651,23936.0
1698744548.5955625,23953.0
1698744548.6160598,23943.0
1698744548.636557,23931.0
1698744548.6570544,23891.0
1698744548.677552,23914.0
1698744548.6980493,23881.0
1698744548.7185466,23877.0
1698744548.739044,23903.0
1698744548.7595413,23905.0
1698744548.7800386,23876.0
1698744548.800536,23909.0
1698744548.8210335,23907.0
1698744548.8415308,23880.0
1698744548.8620281,23874.0
1698744548.8825254,23878.0
1698744548.9030228,23911.0
1698744548.92352,23879.0
1698744548.9440172,23843.0
1698744548.964515,23871.0
1698744548.9850123,23901.0
1698744549.0055096,23861.0
1698744549.026007,23856.0
1698744549.0465043,23830.0
1698744549.0670018,23816.0
1698744549.0874987,23829.0
1698744549.107996,23820.0
1698744549.1284935,23833.0
1698744549.1489909,23832.0
1698744549.1694882,23902.0
1698744549.1899855,23996.0
1698744549.2104828,24088.0
1698744549.2309802,24192.0
1698744549.2514775,24247.0
1698744549.271975,24254.0
1698744549.2924724,24252.0
1698744549.3129694,24202.0
1698744549.333467,24180.0
1698744549.3539643,24192.0
1698744549.3744617,24173.0
1698744549.394959,24152.0
1698744549.4154563,24116.0
1698744549.435954,24133.0
1698744549.4564512,24094.0
1698744549.4769485,24089.0
1698744549.4974458,24132.0
1698744549.5179431,24124.0
1698744549.5384405,24123.0
1698744549.558938,24124.0
1698744549.5794353,24082.0
1698744549.5999327,24122.0
1698744549.62043,24084.0
1698744549.6409273,24074.0
1698744549.6614246,24056.0
1698744549.6819222,24080.0
1698744549.7024195,24081.0
1698744549.7229168,24074.0
1698744549.7434142,24102.0
1698744549.7639115,24185.0
1698744549.7844088,24258.0
1698744549.804906,24425.0
1698744549.8254032,24525.0
1698744549.8459008,24687.0
1698744549.866398,24774.0
1698744549.8868954,24879.0
1698744549.9073927,24937.0
1698744549.9278898,25066.0
1698744549.9483876,25172.0
1698744549.9688847,25209.0
1698744549.989382,25207.0
1698744550.0098796,25207.0
1698744550.030377,25152.0
1698744550.0508745,25089.0
1698744550.0713716,25157.0
1698744550.0918689,25125.0
1698744550.1123662,25130.0
1698744550.1328635,25161.0
1698744550.153361,25156.0
1698744550.1738584,25148.0
1698744550.1943557,25112.0
1698744550.214853,25101.0
1698744550.2353504,25097.0
1698744550.2558477,25121.0
1698744550.276345,25084.0
1698744550.2968423,25098.0
1698744550.31734,25151.0
1698744550.3378372,25136.0
1698744550.3583345,25153.0
1698744550.3788319,25168.0
1698744550.3993292,25179.0
1698744550.4198265,25187.0
1698744550.440324,25195.0
1698744550.4608214,25234.0
1698744550.4813187,25215.0
1698744550.501816,25264.0
1698744550.522313,25280.0
1698744550.5428102,25286.0
1698744550.563308,25262.0
1698744550.5838053,25262.0
1698744550.6043026,25268.0
1698744550.6248,25277.0
1698744550.6452973,25290.0
1698744550.6657948,25306.0
1698744550.686292,25342.0
1698744550.7067893,25309.0
1698744550.7272866,25307.0
1698744550.7477841,25315.0
1698744550.7682815,25283.0
1698744550.7887788,25260.0
1698744550.8092759,25217.0
1698744550.8297734,25252.0
1698744550.8502707,25235.0
1698744550.870768,25298.0
1698744550.8912656,25313.0
1698744550.911763,25296.0
1698744550.9322605,25305.0
1698744550.9527576,25344.0
1698744550.973255,25308.0
1698744550.9937522,25322.0
1698744551.0142496,25344.0
1698744551.0347471,25357.0
1698744551.0552444,25404.0
1698744551.0757418,25397.0
1698744551.096239,25453.0
1698744551.1167364,25450.0
1698744551.1372337,25455.0
1698744551.157731,25507.0
1698744551.1782286,25514.0
1698744551.198726,25518.0
1698744551.2192233,25498.0
1698744551.2397203,25509.0
1698744551.2602177,25555.0
1698744551.280715,25511.0
1698744551.3012123,25546.0
1698744551.3217099,25489.0
1698744551.3422072,25510.0
1698744551.3627045,25503.0
1698744551.3832018,25495.0
1698744551.4036992,25500.0
1698744551.4241962,25501.0
1698744551.4446938,25479.0
1698744551.4651914,25532.0
1698744551.4856887,25560.0
1698744551.506186,25563.0
1698744551.526683,25583.0
1698744551.547181,25649.0
1698744551.567678,25618.0
1698744551.5881753,25636.0
1698744551.6086726,25643.0
1698744551.6291702,25692.0
1698744551.6496675,25667.0
1698744551.6701648,25676.0
1698744551.6906621,25693.0
1698744551.7111595,25694.0
1698744551.7316568,25698.0
1698744551.752154,25736.0
1698744551.7726517,25714.0
1698744551.793149,25720.0
1698744551.8136463,25766.0
1698744551.8341436,25731.0
1698744551.854641,25739.0
1698744551.8751383,25754.0
1698744551.8956356,25791.0
1698744551.9161332,25755.0
1698744551.9366305,25808.0
1698744551.9571276,25808.0
1698744551.977625,25819.0
1698744551.9981222,25820.0
1698744552.0186195,25795.0
1698744552.0391169,25804.0
1698744552.0596144,25842.0
1698744552.0801117,25815.0
1698744552.100609,25852.0
1698744552.1211064,25822.0
1698744552.1416037,25840.0
1698744552.162101,25847.0
1698744552.1825984,25890.0
1698744552.203096,25888.0
1698744552.2235932,25896.0
1698744552.2440906,25898.0
1698744552.2645879,25904.0
1698744552.2850852,25900.0
1698744552.3055825,25874.0
1698744552.3260798,25876.0
1698744552.3465774,25875.0
1698744552.3670747,25878.0
1698744552.387572,25917.0
1698744552.4080691,25914.0
1698744552.428567,25917.0
1698744552.449064,25885.0
1698744552.4695613,25926.0
1698744552.4900587,25935.0
1698744552.5105562,25912.0
1698744552.5310538,25958.0
1698744552.5515509,25917.0
1698744552.5720482,25924.0
1698744552.5925455,25960.0
1698744552.6130428,25960.0
1698744552.6335402,25931.0
1698744552.6540377,25985.0
1698744552.6745348,25990.0
1698744552.6950321,25994.0
1698744552.7155294,25966.0
1698744552.7360268,26008.0
1698744552.756524,26019.0
1698744552.7770214,26029.0
1698744552.797519,25998.0
1698744552.8180163,26038.0
1698744552.8385136,25978.0
1698744552.859011,26023.0
1698744552.8795083,26027.0
1698744552.9000056,26063.0
1698744552.920503,26075.0
1698744552.9410005,26046.0
1698744552.9614978,26095.0
1698744552.981995,26095.0
1698744553.0024924,26089.0
1698744553.0229895,26094.0
1698744553.043487,26092.0
1698744553.0639844,26091.0
1698744553.084482,26053.0
1698744553.1049793,26083.0
1698744553.1254766,26080.0
1698744553.1459742,26078.0
1698744553.1664712,26076.0
1698744553.1869686,26048.0
1698744553.207466,26085.0
1698744553.2279634,26093.0
1698744553.2484608,26067.0
1698744553.268958,26108.0
1698744553.2894552,26121.0
1698744553.3099527,26109.0
1698744553.33045,26150.0
1698744553.3509474,26115.0
1698744553.3714445,26129.0
1698744553.3919418,26104.0
1698744553.4124396,26057.0
1698744553.4329367,26080.0
1698744553.453434,26045.0
1698744553.4739313,26084.0
1698744553.4944286,26040.0
1698744553.514926,26037.0
1698744553.5354235,26072.0
1698744553.5559208,26038.0
1698744553.5764182,26049.0
1698744553.5969155,26085.0
1698744553.6174128,26059.0
1698744553.6379101,26092.0
1698744553.6584077,26091.0
1698744553.678905,26068.0
1698744553.6994023,26067.0
1698744553.7198997,26070.0
1698744553.740397,26107.0
1698744553.7608943,26107.0
1698744553.7813916,26100.0
1698744553.801889,26068.0
1698744553.8223865,26065.0
1698744553.8428838,26100.0
1698744553.8633811,26058.0
1698744553.8838785,26088.0
1698744553.9043756,26088.0
1698744553.924873,26079.0
1698744553.9453704,26081.0
1698744553.965868,26077.0
1698744553.9863653,26040.0
1698744554.0068624,26043.0
1698744554.0273602,26043.0
1698744554.0478573,26083.0
1698744554.0683546,26041.0
1698744554.0888517,26037.0
1698744554.109349,26051.0
1698744554.1298466,26080.0
1698744554.150344,26076.0
1698744554.1708412,26067.0
1698744554.1913385,26038.0
1698744554.2118359,26037.0
1698744554.2323332,26045.0
1698744554.2528305,26078.0
1698744554.2733278,26048.0
1698744554.2938254,26083.0
1698744554.3143227,26081.0
1698744554.33482,26091.0
1698744554.3553174,26088.0
1698744554.3758147,26097.0
1698744554.396312,26063.0
1698744554.4168096,26056.0
1698744554.437307,26099.0
1698744554.4578042,26057.0
1698744554.4783015,26093.0
1698744554.4987988,26089.0
1698744554.519296,26087.0
1698744554.5397937,26045.0
1698744554.560291,26071.0
1698744554.5807884,26032.0
1698744554.6012857,26059.0
1698744554.621783,26056.0
1698744554.6422806,26011.0
1698744554.6627777,26046.0
1698744554.683275,26004.0
1698744554.7037725,26000.0
1698744554.7242699,26033.0
1698744554.7447672,26029.0
1698744554.7652645,25990.0
1698744554.7857618,25988.0
1698744554.806259,26031.0
1698744554.8267562,26025.0
1698744554.8472538,25990.0
1698744554.8677511,25987.0
1698744554.8882482,26027.0
1698744554.9087458,26020.0
1698744554.929243,25951.0
1698744554.9497404,26020.0
1698744554.9702377,26010.0
1698744554.990735,26013.0
1698744555.0112329,26006.0
1698744555.03173,25976.0
1698744555.0522273,26015.0
1698744555.0727246,25975.0
1698744555.093222,26001.0
1698744555.1137192,26005.0
1698744555.1342165,26008.0
1698744555.154714,25999.0
1698744555.1752114,25967.0
1698744555.1957088,25994.0
1698744555.216206,25948.0
1698744555.2367034,25977.0
1698744555.2572007,25933.0
1698744555.277698,25914.0
1698744555.2981956,25932.0
1698744555.318693,25917.0
1698744555.3391902,25873.0
1698744555.3596876,25864.0
1698744555.380185,25884.0
1698744555.400682,25875.0
1698744555.4211795,25828.0
1698744555.441677,25821.0
1698744555.4621744,25815.0
1698744555.4826717,25791.0
1698744555.503169,25746.0
1698744555.5236666,25814.0
1698744555.5441635,25803.0
1698744555.5646608,25799.0
1698744555.5851583,25785.0
1698744555.6056557,25739.0
1698744555.626153,25768.0
1698744555.6466503,25723.0
1698744555.6671476,25713.0
1698744555.687645,25744.0
1698744555.7081423,25744.0
1698744555.7286398,25717.0
1698744555.7491372,25734.0
1698744555.7696345,25787.0
1698744555.7901318,25812.0
1698744555.8106291,25824.0
1698744555.8311265,25838.0
1698744555.8516238,25844.0
1698744555.872121,25863.0
1698744555.892619,25834.0
1698744555.913116,25843.0
1698744555.9336133,25894.0
1698744555.9541106,25869.0
1698744555.974608,25870.0
1698744555.9951053,25872.0
1698744556.0156024,25875.0
1698744556.0361001,25875.0
1698744556.0565975,25911.0
1698744556.0770948,25919.0
1698744556.097592,25922.0
1698744556.1180894,25885.0
1698744556.138587,25912.0
1698744556.159084,25898.0
1698744556.1795816,25882.0
1698744556.200079,25868.0
1698744556.2205763,25825.0
1698744556.2410734,25819.0
1698744556.2615707,25810.0
1698744556.282068,25801.0
1698744556.3025653,25825.0
1698744556.323063,25791.0
1698744556.3435602,25811.0
1698744556.3640575,25765.0
1698744556.3845549,25764.0
1698744556.4050522,25749.0
1698744556.4255495,25774.0
1698744556.4460468,25773.0
1698744556.4665444,25755.0
1698744556.4870415,25718.0
1698744556.507539,25715.0
1698744556.5280364,25730.0
1698744556.5485337,25731.0
1698744556.569031,25723.0
1698744556.5895283,25684.0
1698744556.610026,25673.0
1698744556.6305232,25670.0
1698744556.6510205,25655.0
1698744556.6715178,25682.0
1698744556.6920152,25668.0
1698744556.7125125,25593.0
1698744556.7330098,25642.0
1698744556.7535071,25603.0
1698744556.7740047,25625.0
1698744556.794502,25583.0
1698744556.8149993,25590.0
1698744556.8354967,25579.0
1698744556.855994,25538.0
1698744556.8764913,25561.0
1698744556.8969884,25520.0
1698744556.9174862,25543.0
1698744556.9379835,25533.0
1698744556.9584806,25452.0
1698744556.978978,25488.0
1698744556.999475,25474.0
1698744557.0199728,25464.0
1698744557.04047,25486.0
1698744557.0609674,25447.0
1698744557.0814648,25473.0
1698744557.101962,25464.0
1698744557.1224597,25461.0
1698744557.1429567,25449.0
1698744557.163454,25408.0
1698744557.1839514,25438.0
1698744557.204449,25430.0
1698744557.2249463,25431.0
1698744557.2454436,25391.0
1698744557.265941,25432.0
1698744557.2864382,25386.0
1698744557.3069355,25387.0
1698744557.3274329,25421.0
1698744557.3479304,25422.0
1698744557.3684275,25404.0
1698744557.388925,25432.0
1698744557.4094224,25392.0
1698744557.4299197,25396.0
1698744557.450417,25424.0
1698744557.4709144,25399.0
1698744557.4914117,25446.0
1698744557.5119092,25416.0
1698744557.5324066,25448.0
1698744557.552904,25481.0
1698744557.5734012,25545.0
1698744557.5938985,25550.0
1698744557.6143959,25576.0
1698744557.6348932,25651.0
1698744557.6553907,25675.0
1698744557.6758878,25668.0
1698744557.6963851,25678.0
1698744557.7168825,25679.0
1698744557.7373798,25678.0
1698744557.757877,25666.0
1698744557.7783744,25664.0
1698744557.798872,25661.0
1698744557.8193693,25662.0
1698744557.8398666,25642.0
1698744557.860364,25676.0
1698744557.880861,25672.0
1698744557.9013586,25717.0
1698744557.921856,25695.0
1698744557.9423535,25688.0
1698744557.9628508,25633.0
1698744557.983348,25654.0
1698744558.0038457,25647.0
1698744558.0243428,25634.0
1698744558.04484,25636.0
1698744558.0653374,25589.0
1698744558.085835,25571.0
1698744558.1063325,25559.0
1698744558.1268296,25573.0
1698744558.147327,25488.0
1698744558.1678243,25511.0
1698744558.1883216,25529.0
1698744558.208819,25479.0
1698744558.2293165,25467.0
1698744558.2498138,25491.0
1698744558.270311,25446.0
1698744558.2908084,25476.0
1698744558.3113058,25468.0
1698744558.331803,25427.0
1698744558.3523004,25454.0
1698744558.3727975,25428.0
1698744558.393295,25387.0
1698744558.4137924,25369.0
1698744558.4342897,25394.0
1698744558.454787,25352.0
1698744558.4752843,25344.0
1698744558.4957814,25376.0
1698744558.516279,25366.0
1698744558.5367765,25361.0
1698744558.5572739,25289.0
1698744558.5777712,25354.0
1698744558.5982685,25274.0
1698744558.618766,25336.0
1698744558.6392632,25326.0
1698744558.6597605,25250.0
1698744558.680258,25313.0
1698744558.7007554,25303.0
1698744558.7212527,25291.0
1698744558.74175,25242.0
1698744558.7622473,25227.0
1698744558.7827446,25243.0
1698744558.803242,25233.0
1698744558.8237395,25221.0
1698744558.8442369,25168.0
1698744558.864734,25192.0
1698744558.8852315,25146.0
1698744558.9057288,25166.0
1698744558.9262261,25157.0
1698744558.9467235,25152.0
1698744558.967221,25137.0
1698744558.9877186,25135.0
1698744559.0082157,25122.0
1698744559.028713,25117.0
1698744559.0492103,25076.0
1698744559.0697076,25112.0
1698744559.0902047,25073.0
1698744559.1107023,25107.0
1698744559.1311996,25112.0
1698744559.151697,25085.0
1698744559.1721942,25088.0
1698744559.1926916,25131.0
1698744559.213189,25106.0
1698744559.2336862,25149.0
1698744559.2541835,25161.0
1698744559.274681,25139.0
1698744559.2951784,25146.0
1698744559.3156757,25186.0
1698744559.336173,25187.0
1698744559.3566704,25162.0
1698744559.3771675,25185.0
1698744559.397665,25155.0
1698744559.4181626,25182.0
1698744559.43866,25190.0
1698744559.4591572,25182.0
1698744559.4796543,25154.0
1698744559.500152,25193.0
1698744559.5206492,25186.0
1698744559.5411465,25191.0
1698744559.561644,25163.0
1698744559.5821414,25169.0
1698744559.602639,25200.0
1698744559.623136,25201.0
1698744559.6436334,25160.0
1698744559.6641307,25159.0
1698744559.684628,25160.0
1698744559.7051256,25159.0
1698744559.725623,25158.0
1698744559.7461202,25162.0
1698744559.7666175,25158.0
1698744559.7871149,25162.0
1698744559.807612,25206.0
1698744559.8281093,25199.0
1698744559.8486068,25201.0
1698744559.8691041,25154.0
1698744559.8896015,25157.0
1698744559.9100988,25183.0
1698744559.930596,25165.0
1698744559.9510934,25157.0
1698744559.9715908,25145.0
1698744559.9920883,25135.0
1698744560.0125856,25119.0
1698744560.033083,25072.0
1698744560.0535803,25062.0
1698744560.0740776,25083.0
1698744560.094575,25033.0
1698744560.1150725,25057.0
1698744560.1355696,25049.0
1698744560.1560671,25005.0
1698744560.1765645,24994.0
1698744560.1970618,25019.0
1698744560.217559,24975.0
1698744560.2380564,24998.0
1698744560.2585537,24992.0
1698744560.279051,24989.0
1698744560.2995486,24956.0
1698744560.320046,24988.0
1698744560.3405433,24953.0
1698744560.3610404,24961.0
1698744560.381538,25001.0
1698744560.4020352,24969.0
1698744560.4225326,24971.0
1698744560.44303,24973.0
1698744560.4635272,24933.0
1698744560.484025,25004.0
1698744560.504522,24951.0
1698744560.5250192,24982.0
1698744560.5455165,24935.0
1698744560.5660138,24889.0
1698744560.5865116,24919.0
1698744560.6070087,24897.0
1698744560.627506,24916.0
1698744560.6480033,24867.0
1698744560.6685007,24891.0
1698744560.688998,24844.0
1698744560.7094953,24866.0
1698744560.7299929,24858.0
1698744560.7504902,24850.0
1698744560.7709875,24822.0
1698744560.7914848,24853.0
1698744560.8119822,24854.0
1698744560.8324795,24855.0
1698744560.8529768,24828.0
1698744560.8734741,24865.0
1698744560.8939717,24838.0
1698744560.914469,24886.0
1698744560.9349663,24890.0
1698744560.9554636,24879.0
1698744560.975961,24925.0
1698744560.9964585,24911.0
1698744561.0169556,24957.0
1698744561.0374532,24944.0
1698744561.0579505,24994.0
1698744561.0784478,24956.0
1698744561.0989451,24960.0
1698744561.1194425,24997.0
1698744561.1399398,24926.0
1698744561.160437,24958.0
1698744561.1809347,24984.0
1698744561.201432,24974.0
1698744561.2219293,24964.0
1698744561.2424264,24918.0
1698744561.2629237,24944.0
1698744561.283421,24898.0
1698744561.3039184,24934.0
1698744561.324416,24922.0
1698744561.344913,24923.0
1698744561.3654106,24923.0
1698744561.385908,24928.0
1698744561.4064052,24932.0
1698744561.4269025,24933.0
1698744561.4473999,24938.0
1698744561.4678977,24942.0
1698744561.4883947,24874.0
1698744561.508892,24944.0
1698744561.5293894,24911.0
1698744561.5498867,24916.0
1698744561.570384,24950.0
1698744561.590881,24919.0
1698744561.611379,24961.0
1698744561.6318762,24920.0
1698744561.6523736,24956.0
1698744561.6728709,24924.0
1698744561.6933682,24961.0
1698744561.7138655,24886.0
1698744561.7343628,24932.0
1698744561.7548602,24972.0
1698744561.7753577,24938.0
1698744561.795855,24962.0
1698744561.8163524,24922.0
1698744561.8368497,24944.0
1698744561.857347,24896.0
1698744561.8778443,24887.0
1698744561.8983417,24879.0
1698744561.9188392,24916.0
1698744561.9393365,24871.0
1698744561.9598334,24864.0
1698744561.980331,24887.0
1698744562.0008283,24823.0
1698744562.0213256,24852.0
1698744562.041823,24894.0
1698744562.0623205,24823.0
1698744562.082818,24890.0
1698744562.103315,24856.0
1698744562.1238124,24896.0
1698744562.1443098,24886.0
1698744562.164807,24847.0
1698744562.1853044,24890.0
1698744562.205802,24891.0
1698744562.2262993,24891.0
1698744562.2467966,24888.0
1698744562.267294,24845.0
1698744562.2877913,24874.0
1698744562.3082886,24829.0
1698744562.328786,24848.0
1698744562.3492835,24830.0
1698744562.3697808,24825.0
1698744562.390278,24813.0
1698744562.4107754,24774.0
1698744562.4312727,24759.0
1698744562.45177,24752.0
1698744562.4722672,24749.0
1698744562.492765,24749.0
1698744562.5132623,24742.0
1698744562.5337596,24744.0
1698744562.554257,24744.0
1698744562.5747542,24747.0
1698744562.5952518,24775.0
1698744562.615749,24776.0
1698744562.6362462,24740.0
1698744562.6567438,24770.0
1698744562.6772408,24778.0
1698744562.6977382,24754.0
1698744562.7182355,24761.0
1698744562.7387328,24769.0
1698744562.7592301,24780.0
1698744562.7797275,24829.0
1698744562.800225,24801.0
1698744562.8207223,24845.0
1698744562.8412194,24851.0
1698744562.861717,24818.0
1698744562.8822143,24836.0
1698744562.9027116,24797.0
1698744562.923209,24822.0
1698744562.9437063,24774.0
1698744562.964204,24805.0
1698744562.9847012,24766.0
1698744563.0051985,24758.0
1698744563.0256958,24792.0
1698744563.0461931,24794.0
1698744563.0666904,24757.0
1698744563.087188,24763.0
1698744563.1076853,24773.0
1698744563.1281826,24745.0
1698744563.14868,24780.0
1698744563.1691773,24776.0
1698744563.1896746,24785.0
1698744563.2101722,24790.0
1698744563.2306695,24763.0
1698744563.2511668,24789.0
1698744563.2716641,24762.0
1698744563.2921615,24801.0
1698744563.3126588,24845.0
1698744563.333156,24848.0
1698744563.3536534,24818.0
1698744563.374151,24822.0
1698744563.394648,24810.0
1698744563.4151454,24842.0
1698744563.4356427,24825.0
1698744563.4561398,24782.0
1698744563.4766376,24774.0
1698744563.4971347,24759.0
1698744563.517632,24752.0
1698744563.5381296,24739.0
1698744563.558627,24774.0
1698744563.5791245,24770.0
1698744563.5996215,24775.0
1698744563.6201189,24745.0
1698744563.6406162,24786.0
1698744563.6611135,24786.0
1698744563.681611,24726.0
1698744563.7021084,24794.0
1698744563.7226057,24765.0
1698744563.743103,24810.0
1698744563.7636003,24803.0
1698744563.7840977,24763.0
1698744563.804595,24814.0
1698744563.8250923,24738.0
1698744563.8455899,24779.0
1698744563.8660872,24819.0
1698744563.8865845,24790.0
1698744563.9070818,24792.0
1698744563.9275792,24827.0
1698744563.9480765,24830.0
1698744563.968574,24831.0
1698744563.9890714,24794.0
1698744564.0095687,24793.0
1698744564.030066,24815.0
1698744564.0505633,24811.0
1698744564.0710604,24807.0
1698744564.0915582,24805.0
1698744564.1120553,24805.0
1698744564.1325526,24806.0
1698744564.15305,24783.0
1698744564.1735473,24786.0
1698744564.1940448,24831.0
1698744564.214542,24839.0
1698744564.2350392,24854.0
1698744564.2555366,24830.0
1698744564.276034,24857.0
1698744564.2965314,24866.0
1698744564.3170288,24887.0
1698744564.3375258,24901.0
1698744564.3580234,24911.0
1698744564.3785207,24956.0
1698744564.399018,24969.0
1698744564.4195156,24982.0
1698744564.440013,24962.0
1698744564.4605105,24970.0
1698744564.4810076,24977.0
1698744564.501505,25014.0
1698744564.5220022,25015.0
1698744564.5424995,25015.0
1698744564.562997,24976.0
1698744564.5834944,24973.0
1698744564.6039917,25012.0
1698744564.624489,24977.0
1698744564.6449864,25008.0
1698744564.6654837,25015.0
1698744564.685981,24980.0
1698744564.7064786,25003.0
1698744564.726976,24967.0
1698744564.7474732,24969.0
1698744564.7679706,24959.0
1698744564.788468,24953.0
1698744564.8089652,24957.0
1698744564.8294623,24998.0
1698744564.8499599,24995.0
1698744564.8704572,24993.0
1698744564.8909545,24999.0
1698744564.9114518,25003.0
1698744564.9319491,24971.0
1698744564.9524462,24974.0
1698744564.9729438,24976.0
1698744564.9934413,24936.0
1698744565.0139387,25012.0
1698744565.034436,25009.0
1698744565.054933,25015.0
1698744565.0754309,24974.0
1698744565.095928,25001.0
1698744565.1164253,24990.0
1698744565.1369226,24918.0
1698744565.1574202,24945.0
1698744565.1779175,24986.0
1698744565.1984148,24940.0
1698744565.2189121,24927.0
1698744565.2394094,24963.0
1698744565.2599068,24948.0
1698744565.280404,24947.0
1698744565.3009017,24910.0
1698744565.321399,24944.0
1698744565.3418963,24905.0
1698744565.3623936,24902.0
1698744565.382891,24897.0
1698744565.4033883,24933.0
1698744565.4238856,24934.0
1698744565.4443831,24931.0
1698744565.4648805,24936.0
1698744565.4853778,24941.0
1698744565.505875,24947.0
1698744565.5263724,24921.0
1698744565.5468695,24969.0
1698744565.5673668,24979.0
1698744565.5878644,25000.0
1698744565.6083617,25016.0
1698744565.628859,25046.0
1698744565.6493564,25062.0
1698744565.6698537,25093.0
1698744565.690351,25085.0
1698744565.7108483,25124.0
1698744565.731346,25162.0
1698744565.7518432,25232.0
1698744565.7723405,25255.0
1698744565.7928379,25290.0
1698744565.8133352,25320.0
1698744565.8338325,25347.0
1698744565.8543298,25390.0
1698744565.8748274,25397.0
1698744565.8953247,25457.0
1698744565.915822,25437.0
1698744565.936319,25467.0
1698744565.956817,25428.0
1698744565.977314,25417.0
1698744565.9978113,25405.0
1698744566.0183086,25427.0
1698744566.0388062,25385.0
1698744566.0593038,25417.0
1698744566.0798008,25413.0
1698744566.1002982,25404.0
1698744566.1207955,25373.0
1698744566.1412928,25371.0
1698744566.1617901,25371.0
1698744566.1822877,25404.0
1698744566.202785,25402.0
1698744566.2232823,25352.0
1698744566.2437797,25352.0
1698744566.2642767,25366.0
1698744566.284774,25312.0
1698744566.3052714,25295.0
1698744566.325769,25307.0
1698744566.3462663,25289.0
1698744566.3667636,25276.0
1698744566.387261,25222.0
1698744566.4077582,25207.0
1698744566.4282556,25227.0
1698744566.4487529,25180.0
1698744566.4692504,25174.0
1698744566.4897478,25201.0
1698744566.510245,25154.0
1698744566.5307424,25192.0
1698744566.5512395,25116.0
1698744566.571737,25141.0
1698744566.5922344,25174.0
1698744566.612732,25169.0
1698744566.6332293,25159.0
1698744566.6537266,25124.0
1698744566.6742241,25162.0
1698744566.6947212,25132.0
1698744566.7152185,25166.0
1698744566.7357159,25177.0
1698744566.7562134,25146.0
1698744566.7767107,25176.0
1698744566.797208,25176.0
1698744566.8177052,25130.0
1698744566.8382027,25153.0
1698744566.8587,25113.0
1698744566.8791974,25132.0
1698744566.8996947,25120.0
1698744566.920192,25105.0
1698744566.9406898,25100.0
1698744566.961187,25101.0
1698744566.981684,25097.0
1698744567.0021813,25064.0
1698744567.0226786,25103.0
1698744567.043176,25069.0
1698744567.0636735,25070.0
1698744567.0841708,25110.0
1698744567.1046681,25105.0
1698744567.1251655,25116.0
1698744567.1456628,25117.0
1698744567.16616,25122.0
1698744567.1866577,25128.0
1698744567.207155,25135.0
1698744567.2276523,25139.0
1698744567.2481496,25148.0
1698744567.268647,25154.0
1698744567.2891443,25164.0
1698744567.3096416,25167.0
1698744567.330139,25173.0
1698744567.3506365,25190.0
1698744567.3711338,25187.0
1698744567.3916311,25160.0
1698744567.4121284,25198.0
1698744567.4326255,25197.0
1698744567.453123,25199.0
1698744567.4736204,25214.0
1698744567.494118,25212.0
1698744567.5146153,25275.0
1698744567.5351124,25299.0
1698744567.5556102,25321.0
1698744567.5761073,25339.0
1698744567.5966046,25314.0
1698744567.617102,25358.0
1698744567.6375992,25323.0
1698744567.6580968,25359.0
1698744567.678594,25353.0
1698744567.6990912,25317.0
1698744567.7195885,25335.0
1698744567.7400858,25298.0
1698744567.7605832,25318.0
1698744567.7810805,25278.0
1698744567.8015778,25305.0
1698744567.8220754,25302.0
1698744567.8425727,25268.0
1698744567.86307,25276.0
1698744567.8835673,25279.0
1698744567.9040647,25281.0
1698744567.924562,25280.0
1698744567.9450595,25324.0
1698744567.9655569,25324.0
1698744567.9860542,25320.0
1698744568.0065515,25281.0
1698744568.0270488,25308.0
1698744568.047546,25294.0
1698744568.0680437,25283.0
1698744568.088541,25228.0
1698744568.1090384,25260.0
1698744568.1295357,25249.0
1698744568.150033,25250.0
1698744568.1705306,25249.0
1698744568.1910276,25207.0
1698744568.211525,25248.0
1698744568.2320225,25218.0
1698744568.2525198,25179.0
1698744568.2730172,25214.0
1698744568.2935145,25216.0
1698744568.3140118,25219.0
1698744568.3345091,25240.0
1698744568.3550065,25276.0
1698744568.375504,25266.0
1698744568.3960013,25340.0
1698744568.4164982,25302.0
1698744568.4369957,25283.0
1698744568.457493,25325.0
1698744568.4779904,25333.0
1698744568.4984877,25247.0
1698744568.518985,25286.0
1698744568.5394828,25272.0
1698744568.55998,25262.0
1698744568.5804772,25260.0
1698744568.6009746,25225.0
1698744568.621472,25240.0
1698744568.6419692,25273.0
1698744568.6624665,25234.0
1698744568.682964,25250.0
1698744568.7034614,25239.0
1698744568.7239587,25239.0
1698744568.744456,25247.0
1698744568.7649534,25266.0
1698744568.7854507,25288.0
1698744568.805948,25270.0
1698744568.8264456,25312.0
1698744568.846943,25295.0
1698744568.8674402,25277.0
1698744568.8879375,25363.0
1698744568.9084349,25371.0
1698744568.928932,25336.0
1698744568.9494295,25385.0
1698744568.969927,25398.0
1698744568.9904244,25372.0
1698744569.0109217,25412.0
1698744569.031419,25458.0
1698744569.0519166,25454.0
1698744569.0724137,25507.0
1698744569.092911,25548.0
1698744569.1134086,25571.0
1698744569.1339056,25592.0
1698744569.154403,25642.0
1698744569.1749003,25619.0
1698744569.1953976,25623.0
1698744569.215895,25634.0
1698744569.2363923,25673.0
1698744569.2568898,25629.0
1698744569.2773871,25629.0
1698744569.2978845,25619.0
1698744569.3183818,25652.0
1698744569.338879,25628.0
1698744569.3593764,25671.0
1698744569.3798738,25624.0
1698744569.400371,25650.0
1698744569.4208689,25604.0
1698744569.441366,25601.0
1698744569.4618633,25603.0
1698744569.4823606,25638.0
1698744569.502858,25612.0
1698744569.5233552,25608.0
1698744569.5438523,25609.0
1698744569.5643501,25611.0
1698744569.5848475,25603.0
1698744569.6053448,25598.0
1698744569.625842,25584.0
1698744569.6463394,25617.0
1698744569.666837,25617.0
1698744569.687334,25584.0
1698744569.7078316,25622.0
1698744569.728329,25621.0
1698744569.7488263,25614.0
1698744569.7693236,25618.0
1698744569.789821,25619.0
1698744569.8103182,25617.0
1698744569.8308153,25580.0
1698744569.8513129,25617.0
1698744569.8718102,25559.0
1698744569.8923075,25604.0
1698744569.9128048,25627.0
1698744569.9333022,25672.0
1698744569.9537995,25766.0
1698744569.9742968,25857.0
1698744569.9947944,25956.0
1698744570.0152915,26001.0
1698744570.035789,26082.0
1698744570.0562863,26100.0
1698744570.0767837,26108.0
1698744570.097281,26105.0
1698744570.1177783,26068.0
1698744570.1382759,26100.0
1698744570.1587732,26090.0
1698744570.1792705,26073.0
1698744570.1997678,26160.0
1698744570.2202652,26159.0
1698744570.2407625,26144.0
1698744570.2612598,26240.0
1698744570.281757,26248.0
1698744570.3022547,26206.0
1698744570.322752,26244.0
1698744570.3432493,26207.0
1698744570.3637466,26251.0
1698744570.384244,26281.0
1698744570.4047413,26298.0
1698744570.4252384,26324.0
1698744570.4457362,26292.0
1698744570.4662335,26299.0
1698744570.4867308,26298.0
1698744570.5072281,26344.0
1698744570.527725,26313.0
1698744570.548223,26355.0
1698744570.5687199,26310.0
1698744570.5892174,26343.0
1698744570.6097147,26271.0
1698744570.630212,26344.0
1698744570.6507096,26318.0
1698744570.6712067,26332.0
1698744570.691704,26360.0
1698744570.7122014,26335.0
1698744570.732699,26336.0
1698744570.7531962,26366.0
1698744570.7736936,26375.0
1698744570.794191,26385.0
1698744570.8146882,26396.0
1698744570.8351855,26375.0
1698744570.8556828,26407.0
1698744570.8761804,26380.0
1698744570.8966775,26385.0
1698744570.917175,26387.0
1698744570.9376724,26407.0
1698744570.9581697,26467.0
1698744570.978667,26495.0
1698744570.9991643,26522.0
1698744571.0196617,26505.0
1698744571.0401592,26574.0
1698744571.0606565,26561.0
1698744571.0811539,26609.0
1698744571.1016512,26551.0
1698744571.1221485,26634.0
1698744571.1426458,26626.0
1698744571.1631432,26612.0
1698744571.1836407,26594.0
1698744571.204138,26563.0
1698744571.2246354,26523.0
1698744571.2451327,26420.0
1698744571.2656298,26460.0
1698744571.286127,26398.0
1698744571.3066244,26368.0
1698744571.327122,26346.0
1698744571.3476193,26351.0
1698744571.3681166,26325.0
1698744571.388614,26308.0
1698744571.409111,26250.0
1698744571.4296086,26233.0
1698744571.450106,26225.0
1698744571.4706035,26241.0
1698744571.4911008,26236.0
1698744571.5115979,26180.0
1698744571.5320957,26168.0
1698744571.5525928,26193.0
1698744571.57309,26146.0
1698744571.5935874,26148.0
1698744571.614085,26171.0
1698744571.6345825,26233.0
1698744571.6550796,26259.0
1698744571.675577,26233.0
1698744571.6960742,26282.0
1698744571.7165716,26298.0
1698744571.737069,26301.0
1698744571.7575665,26311.0
1698744571.7780638,26299.0
1698744571.798561,26364.0
1698744571.8190584,26334.0
1698744571.8395557,26425.0
1698744571.860053,26521.0
1698744571.8805504,26570.0
1698744571.9010477,26556.0
1698744571.9215453,26604.0
1698744571.9420426,26598.0
1698744571.96254,26584.0
1698744571.983037,26534.0
1698744572.0035343,26523.0
1698744572.0240314,26474.0
1698744572.044529,26505.0
1698744572.0650265,26509.0
1698744572.0855238,26565.0
1698744572.1060212,26558.0
1698744572.1265185,26616.0
1698744572.147016,26662.0
1698744572.1675131,26686.0
1698744572.1880105,26701.0
1698744572.208508,26702.0
1698744572.2290053,26674.0
1698744572.2495027,26643.0
1698744572.2904124,26612.0
1698744572.3108246,26559.0
1698744572.3312368,26591.0
1698744572.3516493,26593.0
1698744572.3720615,26586.0
1698744572.3924742,26547.0
1698744572.4128861,26595.0
1698744572.4332986,26590.0
1698744572.4537108,26584.0
1698744572.474123,26577.0
1698744572.4945354,26531.0
1698744572.5149477,26521.0
1698744572.53536,26534.0
1698744572.5557725,26513.0
1698744572.5761845,26482.0
1698744572.596597,26432.0
1698744572.6170092,26408.0
1698744572.6374216,26394.0
1698744572.657834,26411.0
1698744572.678246,26389.0
1698744572.6986585,26321.0
1698744572.719071,26300.0
1698744572.739483,26243.0
1698744572.7598956,26302.0
1698744572.780308,26218.0
1698744572.80072,26283.0
1698744572.8211324,26277.0
1698744572.8415449,26228.0
1698744572.861957,26245.0
1698744572.8823693,26206.0
1698744572.9027815,26180.0
1698744572.923194,26246.0
1698744572.9436061,26227.0
1698744572.9640186,26220.0
1698744572.9844308,26167.0
1698744573.0048432,26177.0
1698744573.0252554,26202.0
1698744573.0456674,26173.0
1698744573.06608,26165.0
1698744573.0864925,26179.0
1698744573.1069047,26124.0
1698744573.1273172,26120.0
1698744573.1477292,26046.0
1698744573.1681416,26042.0
1698744573.188554,26008.0
1698744573.2089663,25980.0
1698744573.229379,25958.0
1698744573.249791,25928.0
1698744573.270203,25905.0
1698744573.2906156,25878.0
1698744573.3110278,25862.0
1698744573.3314402,25813.0
1698744573.3518522,25796.0
1698744573.3722649,25816.0
1698744573.392677,25764.0
1698744573.4130893,25751.0
1698744573.4335017,25735.0
1698744573.4539142,25734.0
1698744573.4743264,25768.0
1698744573.4947383,25746.0
1698744573.5151508,25755.0
1698744573.5355632,25814.0
1698744573.5559757,25811.0
1698744573.576388,25896.0
1698744573.5968003,25912.0
1698744573.6172123,25951.0
1698744573.6376247,26087.0
1698744573.6580372,26078.0
1698744573.6784496,26107.0
1698744573.6988618,26046.0
1698744573.7192743,26033.0
1698744573.7396863,26022.0
1698744573.7600987,26013.0
1698744573.780511,26065.0
1698744573.800923,26073.0
1698744573.8213358,26047.0
1698744573.8417478,26095.0
1698744573.8621602,26076.0
1698744573.8825724,26123.0
1698744573.9029849,26106.0
1698744573.9233973,26154.0
1698744573.9438095,26162.0
1698744573.9642217,26176.0
1698744573.984634,26182.0
1698744574.0050464,26170.0
1698744574.0254588,26226.0
1698744574.045871,26261.0
1698744574.0662835,26289.0
1698744574.0866957,26272.0
1698744574.1071079,26316.0
1698744574.1275206,26274.0
1698744574.1479325,26281.0
1698744574.168345,26303.0
1698744574.1887572,26247.0
1698744574.2091694,26229.0
1698744574.2295818,26212.0
1698744574.2499938,26186.0
1698744574.2704065,26165.0
1698744574.290819,26147.0
1698744574.311231,26166.0
1698744574.3316433,26110.0
1698744574.3520555,26143.0
1698744574.372468,26139.0
1698744574.3928804,26131.0
1698744574.4132926,26128.0
1698744574.4337049,26123.0
1698744574.4541173,26121.0
1698744574.4745295,26120.0
1698744574.494942,26084.0
1698744574.5153542,26122.0
1698744574.5357664,26131.0
1698744574.5561788,26144.0
1698744574.576591,26118.0
1698744574.5970035,26140.0
1698744574.6174157,26200.0
1698744574.6378279,26174.0
1698744574.6582403,26178.0
1698744574.6786525,26207.0
1698744574.699065,26148.0
1698744574.7194772,26130.0
1698744574.7398896,26151.0
1698744574.760302,26098.0
1698744574.780714,26119.0
1698744574.8011265,26105.0
1698744574.821539,26054.0
1698744574.8419511,26075.0
1698744574.8623636,26036.0
1698744574.8827758,26071.0
1698744574.903188,26047.0
1698744574.9236004,26113.0
1698744574.9440126,26120.0
1698744574.964425,26187.0
1698744574.9848373,26239.0
1698744575.0052495,26246.0
1698744575.0256622,26302.0
1698744575.0460742,26363.0
1698744575.0664866,26383.0
1698744575.086899,26404.0
1698744575.1073112,26420.0
1698744575.1277235,26383.0
1698744575.1481354,26348.0
1698744575.168548,26384.0
1698744575.1889606,26378.0
1698744575.2093728,26374.0
1698744575.2297852,26399.0
1698744575.2501972,26400.0
1698744575.2706096,26326.0
1698744575.291022,26322.0
1698744575.3114343,26378.0
1698744575.3318467,26330.0
1698744575.3522587,26347.0
1698744575.3726711,26323.0
1698744575.3930836,26265.0
1698744575.4134958,26242.0
1698744575.4339082,26256.0
1698744575.4543207,26233.0
1698744575.4747329,26228.0
1698744575.495145,26221.0
1698744575.5155573,26206.0
1698744575.5359695,26179.0
1698744575.5563822,26125.0
1698744575.5767944,26098.0
1698744575.5972064,26077.0
1698744575.6176188,26097.0
1698744575.6380312,26054.0
1698744575.6584437,26059.0
1698744575.678856,26046.0
1698744575.699268,26097.0
1698744575.7196803,26136.0
1698744575.7400928,26117.0
1698744575.7605052,26121.0
1698744575.7809174,26152.0
1698744575.8013299,26155.0
1698744575.821742,26153.0
1698744575.8421543,26109.0
1698744575.862567,26129.0
1698744575.882979,26117.0
1698744575.9033914,26122.0
1698744575.9238038,26059.0
1698744575.9442158,26136.0
1698744575.9646282,26109.0
1698744575.9850402,26126.0
1698744576.0054529,26156.0
1698744576.0258653,26182.0
1698744576.046277,26237.0
1698744576.0666897,26197.0
1698744576.087102,26223.0
1698744576.1075144,26218.0
1698744576.1279268,26211.0
1698744576.148339,26213.0
1698744576.1687512,26192.0
1698744576.1891637,26225.0
1698744576.209576,26294.0
1698744576.2299883,26280.0
1698744576.2504005,26289.0
1698744576.270813,26300.0
1698744576.2912252,26353.0
1698744576.3116376,26334.0
1698744576.3320498,26372.0
1698744576.352462,26407.0
1698744576.3728745,26466.0
1698744576.3932867,26537.0
1698744576.413699,26623.0
1698744576.434111,26720.0
1698744576.4545236,26747.0
1698744576.474936,26765.0
1698744576.4953485,26818.0
1698744576.5157604,26751.0
1698744576.5361729,26771.0
1698744576.5565853,26761.0
1698744576.5769975,26753.0
1698744576.59741,26750.0
1698744576.6178224,26707.0
1698744576.6382344,26747.0
1698744576.6586468,26750.0
1698744576.679059,26723.0
1698744576.6994715,26768.0
1698744576.7198837,26735.0
1698744576.740296,26742.0
1698744576.7607086,26780.0
1698744576.7811205,26754.0
1698744576.801533,26800.0
1698744576.8219454,26730.0
1698744576.8423576,26811.0
1698744576.8627698,26818.0
1698744576.8831818,26772.0
1698744576.9035945,26793.0
1698744576.924007,26767.0
1698744576.9444191,26736.0
1698744576.9648316,26666.0
1698744576.9852436,26604.0
1698744577.005656,26587.0
1698744577.0260684,26543.0
1698744577.0464807,26499.0
1698744577.066893,26441.0
1698744577.0873053,26362.0
1698744577.1077175,26316.0
1698744577.12813,26319.0
1698744577.1485422,26265.0
1698744577.1689546,26291.0
1698744577.189367,26249.0
1698744577.209779,26264.0
1698744577.2301915,26271.0
1698744577.2506037,26275.0
1698744577.2710161,26265.0
1698744577.2914286,26243.0
1698744577.3118408,26263.0
1698744577.332253,26247.0
1698744577.3526652,26245.0
1698744577.3730776,26241.0
1698744577.39349,26324.0
1698744577.4139023,26343.0
1698744577.4343147,26400.0
1698744577.4547267,26349.0
1698744577.4751391,26360.0
1698744577.4955516,26291.0
1698744577.515964,26257.0
1698744577.5363762,26235.0
1698744577.5567884,26185.0
1698744577.5772007,26074.0
1698744577.597613,26125.0
1698744577.6180253,26095.0
1698744577.6384375,26070.0
1698744577.6588502,26029.0
1698744577.6792622,26030.0
1698744577.6996746,26069.0
1698744577.7200868,26021.0
1698744577.7404993,25993.0
1698744577.7609117,26052.0
1698744577.781324,26117.0
1698744577.801736,26159.0
1698744577.8221483,26199.0
1698744577.8425608,26327.0
1698744577.8629732,26361.0
1698744577.8833854,26398.0
1698744577.9037976,26441.0
1698744577.92421,26485.0
1698744577.9446223,26548.0
1698744577.965035,26558.0
1698744577.985447,26608.0
1698744578.0058594,26584.0
1698744578.0262716,26662.0
1698744578.0466838,26699.0
1698744578.0670962,26659.0
1698744578.0875082,26778.0
1698744578.107921,26759.0
1698744578.1283333,26780.0
1698744578.1487453,26834.0
1698744578.1691577,26852.0
1698744578.18957,26836.0
1698744578.2099824,26897.0
1698744578.2303948,26939.0
1698744578.250807,26951.0
1698744578.2712193,26988.0
1698744578.2916317,27058.0
1698744578.312044,27015.0
1698744578.3324564,27049.0
1698744578.3528688,27095.0
1698744578.3732808,27101.0
1698744578.3936932,27076.0
1698744578.4141057,27057.0
1698744578.4345179,27036.0
1698744578.45493,27022.0
1698744578.4753423,27056.0
1698744578.4957547,27019.0
1698744578.516167,27010.0
1698744578.5365791,26946.0
1698744578.5569918,26900.0
1698744578.577404,26863.0
1698744578.5978165,26834.0
1698744578.6182284,26809.0
1698744578.6386409,26756.0
1698744578.6590533,26776.0
1698744578.6794655,26789.0
1698744578.699878,26778.0
1698744578.72029,26770.0
1698744578.7407024,26736.0
1698744578.7611148,26771.0
1698744578.781527,26769.0
1698744578.8019397,26773.0
1698744578.8223517,26761.0
1698744578.842764,26717.0
1698744578.8631766,26667.0
1698744578.8835886,26735.0
1698744578.904001,26731.0
1698744578.9244132,26743.0
1698744578.9448256,26722.0
1698744578.9652379,26786.0
1698744578.9856498,26783.0
1698744579.0060625,26850.0
1698744579.026475,26811.0
1698744579.0468872,26884.0
1698744579.0672994,26950.0
1698744579.0877116,26962.0
1698744579.108124,26917.0
1698744579.1285365,26943.0
1698744579.1489487,26933.0
1698744579.169361,26939.0
1698744579.189773,26962.0
1698744579.2101855,26980.0
1698744579.230598,26952.0
1698744579.2510104,26967.0
1698744579.2714226,27008.0
1698744579.291835,26978.0
1698744579.312247,27025.0
1698744579.3326595,27048.0
1698744579.3530717,26978.0
1698744579.373484,27022.0
1698744579.3938966,27056.0
1698744579.4143085,26984.0
1698744579.434721,27059.0
1698744579.4551332,27059.0
1698744579.4755456,27030.0
1698744579.495958,27094.0
1698744579.5163703,27081.0
1698744579.5367825,27163.0
1698744579.5571947,27171.0
1698744579.5776072,27203.0
1698744579.5980196,27265.0
1698744579.6184318,27246.0
1698744579.6388443,27267.0
1698744579.6592565,27234.0
1698744579.6796687,27274.0
1698744579.700081,27251.0
1698744579.7204933,27260.0
1698744579.7409058,27308.0
1698744579.7613182,27345.0
1698744579.7817302,27305.0
1698744579.8021426,27320.0
1698744579.8225548,27331.0
1698744579.8429673,27341.0
1698744579.8633797,27346.0
1698744579.8837914,27346.0
1698744579.9042041,27371.0
1698744579.9246163,27366.0
1698744579.9450288,27330.0
1698744579.9654412,27333.0
1698744579.9858534,27366.0
1698744580.0062656,27365.0
1698744580.026678,27363.0
1698744580.0470903,27342.0
1698744580.0675027,27340.0
1698744580.087915,27332.0
1698744580.1083274,27334.0
1698744580.1287396,27294.0
1698744580.149152,27282.0
1698744580.1695642,27264.0
1698744580.1899765,27279.0
1698744580.210389,27250.0
1698744580.230801,27146.0
1698744580.2512133,27155.0
1698744580.2716255,27161.0
1698744580.2920382,27133.0
1698744580.3124504,27088.0
1698744580.3328629,27083.0
1698744580.3532748,27136.0
1698744580.3736873,27133.0
1698744580.3940997,27145.0
1698744580.414512,27153.0
1698744580.4349244,27119.0
1698744580.4553368,27110.0
1698744580.4757488,27102.0
1698744580.4961612,27062.0
1698744580.5165734,27099.0
1698744580.5369859,27086.0
1698744580.557398,27081.0
1698744580.5778103,27105.0
1698744580.598223,27094.0
1698744580.618635,27053.0
1698744580.6390474,27038.0
1698744580.6594598,27008.0
1698744580.679872,26969.0
1698744580.7002842,26979.0
1698744580.7206962,26922.0
1698744580.741109,26888.0
1698744580.7615213,26960.0
1698744580.7819335,27048.0
1698744580.802346,27090.0
1698744580.822758,27054.0
1698744580.8431704,27171.0
1698744580.8635828,27213.0
1698744580.883995,27145.0
1698744580.9044077,27186.0
1698744580.9248195,27201.0
1698744580.945232,27127.0
1698744580.9656444,27138.0
1698744580.9860566,27080.0
1698744581.006469,27063.0
1698744581.0268812,27052.0
1698744581.0472937,26997.0
1698744581.0677059,26989.0
1698744581.088118,27026.0
1698744581.1085305,27072.0
1698744581.128943,27049.0
1698744581.1493552,27098.0
1698744581.1697671,27114.0
1698744581.1901796,27130.0
1698744581.210592,27140.0
1698744581.2310045,27111.0
1698744581.2514167,27166.0
1698744581.271829,27165.0
1698744581.292241,27165.0
1698744581.3126535,27123.0
1698744581.333066,27136.0
1698744581.3534784,27070.0
1698744581.3738906,27031.0
1698744581.3943028,26987.0
1698744581.414715,26887.0
1698744581.4351275,26876.0
1698744581.4555397,26836.0
1698744581.475952,26806.0
1698744581.4963646,26773.0
1698744581.5167766,26755.0
1698744581.537189,26725.0
1698744581.5576012,26742.0
1698744581.5780137,26731.0
1698744581.598426,26755.0
1698744581.6188383,26755.0
1698744581.6392505,26848.0
1698744581.6596627,26864.0
1698744581.6800752,26884.0
1698744581.7004876,26838.0
1698744581.7208998,26843.0
1698744581.741312,26796.0
1698744581.7617245,26777.0
1698744581.7821367,26696.0
1698744581.8025491,26732.0
1698744581.8229613,26773.0
1698744581.8433738,26816.0
1698744581.863786,26853.0
1698744581.8841982,26874.0
1698744581.9046106,26874.0
1698744581.9250228,26835.0
1698744581.9454353,26862.0
1698744581.9658477,26842.0
1698744581.9862597,26805.0
1698744582.0066721,26773.0
1698744582.0270846,26739.0
1698744582.0474968,26698.0
1698744582.0679092,26662.0
1698744582.0883212,26637.0
1698744582.1087337,26595.0
1698744582.129146,26592.0
1698744582.1495583,26588.0
1698744582.1699708,26613.0
1698744582.190383,26606.0
1698744582.2107952,26577.0
1698744582.2312076,26482.0
1698744582.25162,26527.0
1698744582.2720323,26446.0
1698744582.2924445,26529.0
1698744582.312857,26504.0
1698744582.3332691,26557.0
1698744582.3536813,26577.0
1698744582.3740938,26562.0
1698744582.3945062,26630.0
1698744582.4149184,26668.0
1698744582.4353306,26702.0
1698744582.4557428,26694.0
1698744582.4761553,26743.0
1698744582.4965677,26714.0
1698744582.51698,26759.0
1698744582.5373924,26758.0
1698744582.5578043,26727.0
1698744582.5782168,26696.0
1698744582.5986292,26781.0
1698744582.6190414,26742.0
1698744582.6394541,26727.0
1698744582.659866,26713.0
1698744582.6802783,26702.0
1698744582.700691,26738.0
1698744582.721103,26743.0
1698744582.7415154,26668.0
1698744582.7619276,26698.0
1698744582.7823398,26677.0
1698744582.8027523,26697.0
1698744582.8231645,26653.0
1698744582.843577,26617.0
1698744582.8639894,26507.0
1698744582.8844016,26532.0
1698744582.9048138,26432.0
1698744582.925226,26404.0
1698744582.9456384,26339.0
1698744582.9660509,26251.0
1698744582.986463,26245.0
1698744583.0068755,26209.0
1698744583.0272875,26190.0
1698744583.0477,26136.0
1698744583.0681124,26157.0
1698744583.0885248,26118.0
1698744583.108937,26153.0
1698744583.1293492,26146.0
1698744583.1497617,26130.0
1698744583.170174,26103.0
1698744583.190586,26076.0
1698744583.2109983,26033.0
1698744583.231411,25979.0
1698744583.251823,26011.0
1698744583.2722354,25966.0
1698744583.2926476,25939.0
1698744583.31306,25937.0
1698744583.3334725,25855.0
1698744583.3538847,25784.0
1698744583.374297,25741.0
1698744583.394709,25632.0
1698744583.4151216,25610.0
1698744583.435534,25528.0
1698744583.4559462,25538.0
1698744583.4763587,25518.0
1698744583.4967709,25505.0
1698744583.517183,25454.0
1698744583.5375957,25408.0
1698744583.5580077,25469.0
1698744583.5784202,25420.0
1698744583.5988326,25420.0
1698744583.6192446,25425.0
1698744583.639657,25435.0
1698744583.660069,25467.0
1698744583.6804817,25434.0
1698744583.700894,25390.0
1698744583.721306,25418.0
1698744583.7417185,25428.0
1698744583.762131,25388.0
1698744583.7825432,25308.0
1698744583.8029556,25283.0
1698744583.8233678,25242.0
1698744583.84378,25178.0
1698744583.8641925,25180.0
1698744583.8846047,25238.0
1698744583.9050171,25265.0
1698744583.9254293,25285.0
1698744583.9458416,25290.0
1698744583.966254,25273.0
1698744583.9866664,25235.0
1698744584.0070786,25281.0
1698744584.0274909,25243.0
1698744584.0479033,25276.0
1698744584.0683155,25278.0
1698744584.0887277,25261.0
1698744584.10914,25323.0
1698744584.1295526,25350.0
1698744584.1499648,25401.0
1698744584.1703773,25375.0
1698744584.1907892,25499.0
1698744584.2112017,25505.0
1698744584.231614,25541.0
1698744584.2520263,25591.0
1698744584.2724388,25596.0
1698744584.2928507,25526.0
1698744584.3132632,25561.0
1698744584.3336756,25555.0
1698744584.3540878,25580.0
1698744584.3745003,25528.0
1698744584.3949125,25544.0
1698744584.4153247,25530.0
1698744584.4357371,25473.0
1698744584.4561493,25433.0
1698744584.4765618,25495.0
1698744584.4969742,25409.0
1698744584.5173864,25486.0
1698744584.5377986,25499.0
1698744584.5582108,25525.0
1698744584.5786233,25510.0
1698744584.5990357,25564.0
1698744584.619448,25544.0
1698744584.6398602,25557.0
1698744584.6602724,25588.0
1698744584.6806848,25578.0
1698744584.7010972,25572.0
1698744584.7215095,25515.0
1698744584.7419221,25486.0
1698744584.7623339,25488.0
1698744584.7827463,25444.0
1698744584.8031588,25418.0
1698744584.823571,25393.0
1698744584.8439834,25331.0
1698744584.8643959,25344.0
1698744584.884808,25301.0
1698744584.9052203,25238.0
1698744584.9256325,25257.0
1698744584.946045,25231.0
1698744584.9664574,25238.0
1698744584.9868696,25260.0
1698744585.0072815,25326.0
1698744585.027694,25351.0
1698744585.0481064,25388.0
1698744585.0685189,25446.0
1698744585.088931,25514.0
1698744585.1093433,25525.0
1698744585.1297555,25686.0
1698744585.150168,25763.0
1698744585.1705804,25828.0
1698744585.1909928,25853.0
1698744585.211405,25925.0
1698744585.2318172,25952.0
1698744585.2522295,25978.0
1698744585.272642,25981.0
1698744585.293054,25911.0
1698744585.3134665,25978.0
1698744585.333879,25978.0
1698744585.354291,25988.0
1698744585.3747034,25955.0
1698744585.3951154,25976.0
1698744585.415528,25957.0
1698744585.4359405,25946.0
1698744585.4563522,25907.0
1698744585.476765,25915.0
1698744585.4971774,25955.0
1698744585.5175896,25929.0
1698744585.538002,25971.0
1698744585.5584142,25926.0
1698744585.5788264,25955.0
1698744585.5992389,25912.0
1698744585.619651,25952.0
1698744585.6400638,25910.0
1698744585.6604757,25895.0
1698744585.6808882,25878.0
1698744585.7013004,25907.0
1698744585.7217126,25874.0
1698744585.742125,25910.0
1698744585.7625372,25904.0
1698744585.7829497,25835.0
1698744585.803362,25907.0
1698744585.823774,25858.0
1698744585.8441863,25846.0
1698744585.864599,25839.0
1698744585.8850112,25872.0
1698744585.9054236,25862.0
1698744585.9258356,25858.0
1698744585.946248,25876.0
1698744585.9666605,25858.0
1698744585.9870727,25882.0
1698744586.0074852,25896.0
1698744586.0278976,25910.0
1698744586.0483096,25890.0
1698744586.068722,25885.0
1698744586.0891345,25867.0
1698744586.1095467,25858.0
1698744586.1299589,25731.0
1698744586.150371,25652.0
1698744586.1707835,25593.0
1698744586.1911957,25516.0
1698744586.2116082,25496.0
1698744586.2320206,25421.0
1698744586.2524328,25369.0
1698744586.272845,25340.0
1698744586.293257,25248.0
1698744586.3136697,25229.0
1698744586.3340821,25174.0
1698744586.3544943,25121.0
1698744586.3749068,25068.0
1698744586.3953187,25017.0
1698744586.4157312,24934.0
1698744586.4361436,24888.0
1698744586.4565558,24858.0
1698744586.4769685,24866.0
1698744586.4973803,24797.0
1698744586.5177927,24804.0
1698744586.5382051,24772.0
1698744586.5586174,24750.0
1698744586.5790298,24695.0
1698744586.599442,24708.0
1698744586.6198542,24686.0
1698744586.6402667,24643.0
1698744586.6606789,24662.0
1698744586.6810913,24666.0
1698744586.7015038,24671.0
1698744586.721916,24649.0
1698744586.742328,24615.0
1698744586.7627404,24586.0
1698744586.7831528,24491.0
1698744586.8035653,24538.0
1698744586.8239775,24517.0
1698744586.84439,24469.0
1698744586.864802,24487.0
1698744586.8852143,24451.0
1698744586.9056268,24443.0
1698744586.926039,24447.0
1698744586.9464514,24496.0
1698744586.9668636,24482.0
1698744586.9872758,24612.0
1698744587.0076883,24628.0
1698744587.0281005,24644.0
1698744587.048513,24650.0
1698744587.0689254,24687.0
1698744587.0893373,24655.0
1698744587.1097498,24691.0
1698744587.130162,24679.0
1698744587.1505744,24677.0
1698744587.170987,24660.0
1698744587.191399,24573.0
1698744587.2118113,24632.0
1698744587.2322237,24606.0
1698744587.252636,24580.0
1698744587.2730484,24559.0
1698744587.2934606,24498.0
1698744587.3138728,24512.0
1698744587.3342853,24449.0
1698744587.3546975,24435.0
1698744587.3751101,24446.0
1698744587.395522,24405.0
1698744587.4159346,24398.0
1698744587.4363468,24433.0
1698744587.456759,24403.0
1698744587.4771714,24419.0
1698744587.4975834,24456.0
1698744587.517996,24431.0
1698744587.5384085,24407.0
1698744587.5588205,24481.0
1698744587.579233,24486.0
1698744587.5996454,24491.0
1698744587.6200576,24500.0
1698744587.64047,24470.0
1698744587.660882,24477.0
1698744587.6812944,24516.0
1698744587.701707,24481.0
1698744587.722119,24507.0
1698744587.7425315,24480.0
1698744587.7629437,24418.0
1698744587.783356,24427.0
1698744587.8037684,24358.0
1698744587.8241808,24329.0
1698744587.844593,24302.0
1698744587.8650053,24307.0
1698744587.8854175,24283.0
1698744587.90583,24234.0
1698744587.926242,24212.0
1698744587.9466543,24212.0
1698744587.967067,24233.0
1698744587.9874792,24230.0
1698744588.0078914,24221.0
1698744588.0283036,24221.0
1698744588.048716,24220.0
1698744588.0691285,24222.0
1698744588.0895407,24154.0
1698744588.1099532,24231.0
1698744588.1303651,24231.0
1698744588.1507776,24198.0
1698744588.17119,24205.0
1698744588.1916022,24236.0
1698744588.2120147,24229.0
1698744588.2324271,24176.0
1698744588.252839,24148.0
1698744588.2732518,24165.0
1698744588.2936637,24109.0
1698744588.3140762,24117.0
1698744588.3344884,24103.0
1698744588.3549008,24087.0
1698744588.375313,24046.0
1698744588.395725,24064.0
1698744588.4161377,24063.0
1698744588.4365501,24030.0
1698744588.4569623,24035.0
1698744588.4773746,24000.0
1698744588.4977868,24082.0
1698744588.5181992,24050.0
1698744588.5386117,24050.0
1698744588.5590239,24087.0
1698744588.5794363,24052.0
1698744588.5998483,24093.0
1698744588.6202607,24095.0
1698744588.6406732,24094.0
1698744588.6610854,24073.0
1698744588.6814978,24071.0
1698744588.7019103,24068.0
1698744588.7223225,24062.0
1698744588.7427347,24072.0
1698744588.7631469,24017.0
1698744588.783559,23955.0
1698744588.8039718,23955.0
1698744588.8243837,23931.0
1698744588.844796,23914.0
1698744588.8652084,23896.0
1698744588.8856208,23911.0
1698744588.9060333,23899.0
1698744588.9264455,23892.0
1698744588.9468577,23899.0
1698744588.9672701,23895.0
1698744588.9876823,23898.0
1698744589.0080948,23892.0
1698744589.028507,23862.0
1698744589.0489194,23889.0
1698744589.0693316,23859.0
1698744589.0897439,23890.0
1698744589.1101563,23885.0
1698744589.1305685,23879.0
1698744589.150981,23852.0
1698744589.1713932,23876.0
1698744589.1918054,23878.0
1698744589.2122178,23878.0
1698744589.2326298,23856.0
1698744589.2530425,23801.0
1698744589.273455,23775.0
1698744589.2938669,23752.0
1698744589.3142793,23729.0
1698744589.3346918,23742.0
1698744589.355104,23687.0
1698744589.3755164,23672.0
1698744589.3959286,23700.0
1698744589.4163408,23699.0
1698744589.4367533,23666.0
1698744589.4571655,23712.0
1698744589.477578,23683.0
1698744589.4979901,23727.0
1698744589.5184023,23735.0
1698744589.5388148,23713.0
1698744589.559227,23772.0
1698744589.5796394,23751.0
1698744589.6000516,23774.0
1698744589.620464,23839.0
1698744589.6408763,23882.0
1698744589.6612885,23893.0
1698744589.681701,23973.0
1698744589.7021134,24024.0
1698744589.7225256,24052.0
1698744589.742938,24127.0
1698744589.76335,24134.0
1698744589.7837625,24210.0
1698744589.804175,24224.0
1698744589.824587,24373.0
1698744589.8449996,24513.0
1698744589.8654115,24411.0
1698744589.885824,24413.0
1698744589.9062364,24371.0
1698744589.9266486,24519.0
1698744589.947061,24663.0
1698744589.9674735,24866.0
1698744589.9878855,24690.0
1698744590.0082982,24577.0
1698744590.0287101,24544.0
1698744590.0491226,24560.0
1698744590.069535,24551.0
1698744590.0899472,24610.0
1698744590.1103594,24604.0
1698744590.1307714,24659.0
1698744590.151184,24682.0
1698744590.1715965,24712.0
1698744590.1920087,24737.0
1698744590.2124212,24770.0
1698744590.2328331,24802.0
1698744590.2532456,24832.0
1698744590.273658,24813.0
1698744590.2940702,24861.0
1698744590.314483,24835.0
1698744590.3348947,24864.0
1698744590.355307,24858.0
1698744590.3757195,24844.0
1698744590.3961318,24800.0
1698744590.4165442,24781.0
1698744590.4369564,24803.0
1698744590.4573689,24779.0
1698744590.477781,24756.0
1698744590.4981933,24740.0
1698744590.5186057,24719.0
1698744590.5390182,24669.0
1698744590.5594304,24688.0
1698744590.5798423,24678.0
1698744590.6002548,24671.0
1698744590.6206672,24669.0
1698744590.6410797,24635.0
1698744590.6614919,24642.0
1698744590.681904,24678.0
1698744590.7023165,24682.0
1698744590.7227287,24649.0
1698744590.7431412,24703.0
1698744590.7635536,24681.0
1698744590.7839658,24691.0
1698744590.804378,24697.0
1698744590.8247902,24697.0
1698744590.8452027,24705.0
1698744590.865615,24737.0
1698744590.886027,24674.0
1698744590.9064398,24710.0
1698744590.9268517,24752.0
1698744590.9472642,24731.0
1698744590.9676764,24775.0
1698744590.9880888,24799.0
1698744591.0085013,24782.0
1698744591.028913,24817.0
1698744591.0493257,24888.0
1698744591.0697381,24951.0
1698744591.0901504,25025.0
1698744591.1105628,25088.0
1698744591.130975,25231.0
1698744591.1513872,25316.0
1698744591.1717997,25426.0
1698744591.1922119,25544.0
1698744591.2126245,25670.0
1698744591.2330365,25746.0
1698744591.253449,25806.0
1698744591.2738612,25802.0
1698744591.2942734,25831.0
1698744591.3146858,25821.0
1698744591.3350978,25799.0
1698744591.3555105,25756.0
1698744591.3759227,25695.0
1698744591.396335,25678.0
1698744591.4167473,25634.0
1698744591.4371598,25600.0
1698744591.457572,25503.0
1698744591.4779844,25548.0
1698744591.4983964,25573.0
1698744591.5188088,25646.0
1698744591.5392213,25672.0
1698744591.5596335,25704.0
1698744591.580046,25751.0
1698744591.6004584,25732.0
1698744591.6208704,25872.0
1698744591.6412828,25940.0
1698744591.661695,25963.0
1698744591.6821074,26015.0
1698744591.70252,26091.0
1698744591.7229319,26129.0
1698744591.7433443,26132.0
1698744591.7637565,26153.0
1698744591.784169,26218.0
1698744591.8045814,26242.0
1698744591.8249936,26262.0
1698744591.8454058,26273.0
1698744591.865818,26292.0
1698744591.8862305,26267.0
1698744591.906643,26316.0
1698744591.9270551,26290.0
1698744591.9474676,26336.0
1698744591.9678795,26344.0
1698744591.988292,26349.0
1698744592.0087044,26357.0
1698744592.0291166,26334.0
1698744592.049529,26337.0
1698744592.0699415,26355.0
1698744592.0903535,26405.0
1698744592.1107662,26426.0
1698744592.1311781,26436.0
1698744592.1515906,26457.0
1698744592.172003,26469.0
1698744592.192415,26481.0
1698744592.2128274,26498.0
1698744592.2332394,26510.0
1698744592.253652,26523.0
1698744592.2740645,26496.0
1698744592.2944767,26500.0
1698744592.314889,26545.0
1698744592.3353012,26513.0
1698744592.3557136,26540.0
1698744592.376126,26496.0
1698744592.3965383,26487.0
1698744592.4169507,26473.0
1698744592.437363,26487.0
1698744592.457775,26433.0
1698744592.4781876,26399.0
1698744592.4986,26356.0
1698744592.5190122,26325.0
1698744592.5394244,26285.0
1698744592.5598369,26253.0
1698744592.580249,26181.0
1698744592.6006613,26195.0
1698744592.6210735,26170.0
1698744592.6414862,26128.0
1698744592.6618981,26144.0
1698744592.6823103,26127.0
1698744592.7027228,26117.0
1698744592.7231352,26098.0
1698744592.7435477,26122.0
1698744592.76396,26108.0
1698744592.784372,26092.0
1698744592.8047845,26078.0
1698744592.8251967,26080.0
1698744592.8456092,26071.0
1698744592.8660214,26062.0
1698744592.8864336,26020.0
1698744592.906846,26030.0
1698744592.9272583,26066.0
1698744592.947671,26028.0
1698744592.968083,26031.0
1698744592.9884953,26063.0
