ts(msec),PPG
1698923800013.6594,21680.0
1698923800034.155,21683.0
1698923800054.651,21689.0
1698923800075.1465,21692.0
1698923800095.642,21684.0
1698923800116.1377,21691.0
1698923800136.6333,21696.0
1698923800157.129,21698.0
1698923800177.6245,21702.0
1698923800198.1204,21701.0
1698923800218.616,21706.0
1698923800239.1116,21709.0
1698923800259.6072,21710.0
1698923800280.1028,21719.0
1698923800300.5984,21714.0
1698923800321.0942,21714.0
1698923800341.5898,21721.0
1698923800362.0854,21723.0
1698923800382.581,21720.0
1698923800403.077,21725.0
1698923800423.5725,21728.0
1698923800444.068,21728.0
1698923800464.5637,21738.0
1698923800485.059,21731.0
1698923800505.555,21736.0
1698923800526.0503,21741.0
1698923800546.546,21748.0
1698923800567.0415,21744.0
1698923800587.5376,21753.0
1698923800608.0332,21750.0
1698923800628.5288,21756.0
1698923800649.0244,21758.0
1698923800669.52,21765.0
1698923800690.0156,21765.0
1698923800710.5117,21769.0
1698923800731.007,21767.0
1698923800751.5027,21778.0
1698923800771.9983,21784.0
1698923800792.494,21776.0
1698923800812.9895,21779.0
1698923800833.485,21782.0
1698923800853.981,21787.0
1698923800874.4766,21781.0
1698923800894.9722,21780.0
1698923800915.4678,21789.0
1698923800935.9634,21790.0
1698923800956.459,21783.0
1698923800976.9548,21782.0
1698923800997.4504,21787.0
1698923801017.946,21788.0
1698923801038.4417,21784.0
1698923801058.9373,21792.0
1698923801079.4329,21782.0
1698923801099.9287,21789.0
1698923801120.4243,21788.0
1698923801140.92,21792.0
1698923801161.4155,21788.0
1698923801181.9111,21798.0
1698923801202.4067,21801.0
1698923801222.9023,21804.0
1698923801243.3982,21809.0
1698923801263.8938,21806.0
1698923801284.3894,21813.0
1698923801304.885,21816.0
1698923801325.3806,21812.0
1698923801345.8762,21824.0
1698923801366.372,21823.0
1698923801386.8677,21822.0
1698923801407.3633,21828.0
1698923801427.859,21826.0
1698923801448.3545,21826.0
1698923801468.85,21829.0
1698923801489.346,21832.0
1698923801509.8416,21837.0
1698923801530.3372,21837.0
1698923801550.8328,21838.0
1698923801571.3284,21839.0
1698923801591.824,21842.0
1698923801612.3196,21841.0
1698923801632.8154,21837.0
1698923801653.311,21836.0
1698923801673.8066,21843.0
1698923801694.3022,21850.0
1698923801714.798,21849.0
1698923801735.2937,21840.0
1698923801755.7893,21851.0
1698923801776.285,21845.0
1698923801796.7805,21850.0
1698923801817.276,21859.0
1698923801837.7715,21856.0
1698923801858.267,21856.0
1698923801878.7632,21855.0
1698923801899.2588,21855.0
1698923801919.7544,21859.0
1698923801940.25,21855.0
1698923801960.7456,21860.0
1698923801981.2412,21857.0
1698923802001.7368,21860.0
1698923802022.233,21859.0
1698923802042.7285,21857.0
1698923802063.224,21860.0
1698923802083.7195,21859.0
1698923802104.215,21852.0
1698923802124.7107,21854.0
1698923802145.2063,21856.0
1698923802165.702,21860.0
1698923802186.1978,21862.0
1698923802206.6934,21858.0
1698923802227.189,21857.0
1698923802247.6846,21864.0
1698923802268.1804,21859.0
1698923802288.676,21859.0
1698923802309.1716,21859.0
1698923802329.6672,21859.0
1698923802350.1628,21861.0
1698923802370.6584,21862.0
1698923802391.154,21867.0
1698923802411.65,21862.0
1698923802432.1455,21859.0
1698923802452.641,21858.0
1698923802473.1367,21857.0
1698923802493.6323,21859.0
1698923802514.128,21859.0
1698923802534.6238,21863.0
1698923802555.1194,21866.0
1698923802575.615,21864.0
1698923802596.1106,21867.0
1698923802616.6062,21871.0
1698923802637.1018,21870.0
1698923802657.5977,21865.0
1698923802678.0933,21873.0
1698923802698.5889,21870.0
1698923802719.0845,21868.0
1698923802739.58,21864.0
1698923802760.0757,21865.0
1698923802780.5713,21862.0
1698923802801.0671,21868.0
1698923802821.5627,21862.0
1698923802842.0583,21861.0
1698923802862.554,21861.0
1698923802883.0496,21864.0
1698923802903.5452,21861.0
1698923802924.041,21867.0
1698923802944.5366,21865.0
1698923802965.0322,21862.0
1698923802985.5278,21866.0
1698923803006.0234,21868.0
1698923803026.519,21868.0
1698923803047.015,21863.0
1698923803067.5105,21869.0
1698923803088.006,21866.0
1698923803108.5017,21871.0
1698923803128.9973,21867.0
1698923803149.493,21868.0
1698923803169.9883,21866.0
1698923803190.4844,21861.0
1698923803210.98,21860.0
1698923803231.4756,21859.0
1698923803251.9712,21852.0
1698923803272.4668,21858.0
1698923803292.9624,21851.0
1698923803313.4585,21851.0
1698923803333.954,21845.0
1698923803354.4497,21847.0
1698923803374.945,21840.0
1698923803395.441,21834.0
1698923803415.9363,21830.0
1698923803436.432,21827.0
1698923803456.9275,21826.0
1698923803477.423,21825.0
1698923803497.919,21824.0
1698923803518.4146,21823.0
1698923803538.9102,21821.0
1698923803559.4058,21820.0
1698923803579.9016,21818.0
1698923803600.3972,21816.0
1698923803620.8928,21812.0
1698923803641.3884,21800.0
1698923803661.884,21804.0
1698923803682.3796,21805.0
1698923803702.8755,21800.0
1698923803723.371,21790.0
1698923803743.8667,21783.0
1698923803764.3623,21779.0
1698923803784.858,21774.0
1698923803805.3535,21765.0
1698923803825.849,21762.0
1698923803846.345,21765.0
1698923803866.8406,21755.0
1698923803887.3362,21754.0
1698923803907.8318,21749.0
1698923803928.3274,21738.0
1698923803948.823,21740.0
1698923803969.3188,21733.0
1698923803989.8145,21734.0
1698923804010.31,21722.0
1698923804030.8057,21726.0
1698923804051.3013,21717.0
1698923804071.7969,21720.0
1698923804092.2927,21713.0
1698923804112.7883,21711.0
1698923804133.284,21709.0
1698923804153.7795,21705.0
1698923804174.2751,21713.0
1698923804194.7708,21706.0
1698923804215.2664,21701.0
1698923804235.7622,21708.0
1698923804256.2578,21700.0
1698923804276.7534,21703.0
1698923804297.249,21701.0
1698923804317.7446,21699.0
1698923804338.2402,21704.0
1698923804358.736,21707.0
1698923804379.2317,21710.0
1698923804399.7273,21696.0
1698923804420.223,21695.0
1698923804440.7185,21690.0
1698923804461.214,21690.0
1698923804481.71,21691.0
1698923804502.2056,21687.0
1698923804522.7012,21680.0
1698923804543.1968,21682.0
1698923804563.6924,21682.0
1698923804584.188,21677.0
1698923804604.6836,21687.0
1698923804625.1794,21674.0
1698923804645.675,21677.0
1698923804666.171,21670.0
1698923804686.6665,21672.0
1698923804707.162,21674.0
1698923804727.6577,21674.0
1698923804748.1533,21675.0
1698923804768.649,21682.0
1698923804789.1443,21665.0
1698923804809.64,21674.0
1698923804830.1355,21668.0
1698923804850.631,21675.0
1698923804871.1272,21672.0
1698923804891.6228,21676.0
1698923804912.1184,21678.0
1698923804932.614,21680.0
1698923804953.1096,21677.0
1698923804973.6052,21684.0
1698923804994.1008,21679.0
1698923805014.5967,21686.0
1698923805035.0923,21665.0
1698923805055.588,21664.0
1698923805076.0835,21660.0
1698923805096.579,21650.0
1698923805117.0747,21647.0
1698923805137.5706,21645.0
1698923805158.0662,21647.0
1698923805178.5618,21655.0
1698923805199.0574,21665.0
1698923805219.553,21662.0
1698923805240.0486,21661.0
1698923805260.5444,21661.0
1698923805281.04,21669.0
1698923805301.5356,21657.0
1698923805322.0312,21656.0
1698923805342.5269,21653.0
1698923805363.0225,21659.0
1698923805383.518,21652.0
1698923805404.014,21653.0
1698923805424.5095,21655.0
1698923805445.0051,21657.0
1698923805465.5007,21648.0
1698923805485.9963,21648.0
1698923805506.492,21641.0
1698923805526.9878,21635.0
1698923805547.4834,21629.0
1698923805567.979,21611.0
1698923805588.4746,21600.0
1698923805608.9702,21591.0
1698923805629.4658,21574.0
1698923805649.9617,21566.0
1698923805670.4573,21552.0
1698923805690.953,21532.0
1698923805711.4485,21507.0
1698923805731.944,21493.0
1698923805752.4397,21473.0
1698923805772.9353,21452.0
1698923805793.4312,21426.0
1698923805813.9268,21413.0
1698923805834.4224,21395.0
1698923805854.918,21385.0
1698923805875.4136,21374.0
1698923805895.9092,21369.0
1698923805916.405,21360.0
1698923805936.9006,21349.0
1698923805957.3962,21335.0
1698923805977.8918,21324.0
1698923805998.3877,21310.0
1698923806018.883,21287.0
1698923806039.379,21274.0
1698923806059.8745,21258.0
1698923806080.37,21249.0
1698923806100.8655,21235.0
1698923806121.361,21217.0
1698923806141.857,21199.0
1698923806162.3523,21184.0
1698923806182.8484,21161.0
1698923806203.344,21143.0
1698923806223.8396,21118.0
1698923806244.3352,21092.0
1698923806264.8308,21067.0
1698923806285.3264,21049.0
1698923806305.8225,21014.0
1698923806326.318,20988.0
1698923806346.8137,20966.0
1698923806367.309,20940.0
1698923806387.8047,20921.0
1698923806408.3003,20902.0
1698923806428.796,20888.0
1698923806449.2915,20869.0
1698923806469.7874,20850.0
1698923806490.283,20844.0
1698923806510.7786,20835.0
1698923806531.2742,20827.0
1698923806551.7698,20809.0
1698923806572.2656,20806.0
1698923806592.7612,20794.0
1698923806613.2568,20782.0
1698923806633.7524,20775.0
1698923806654.248,20768.0
1698923806674.7437,20764.0
1698923806695.2395,20760.0
1698923806715.735,20762.0
1698923806736.2307,20765.0
1698923806756.7263,20767.0
1698923806777.222,20754.0
1698923806797.7175,20757.0
1698923806818.2134,20755.0
1698923806838.709,20750.0
1698923806859.2046,20749.0
1698923806879.7002,20740.0
1698923806900.1958,20739.0
1698923806920.6914,20732.0
1698923806941.187,20724.0
1698923806961.6829,20717.0
1698923806982.1785,20708.0
1698923807002.674,20713.0
1698923807023.1697,20704.0
1698923807043.6653,20709.0
1698923807064.161,20715.0
1698923807084.6567,20719.0
1698923807105.1523,20709.0
1698923807125.648,20697.0
1698923807146.1436,20687.0
1698923807166.6392,20676.0
1698923807187.1348,20669.0
1698923807207.6304,20663.0
1698923807228.1262,20655.0
1698923807248.6218,20662.0
1698923807269.1174,20653.0
1698923807289.613,20661.0
1698923807310.1086,20658.0
1698923807330.6042,20664.0
1698923807351.1,20658.0
1698923807371.5957,20647.0
1698923807392.0913,20634.0
1698923807412.587,20616.0
1698923807433.0825,20606.0
1698923807453.578,20588.0
1698923807474.074,20568.0
1698923807494.5696,20561.0
1698923807515.0652,20552.0
1698923807535.5608,20543.0
1698923807556.0564,20530.0
1698923807576.552,20520.0
1698923807597.0476,20509.0
1698923807617.5437,20516.0
1698923807638.039,20510.0
1698923807658.535,20505.0
1698923807679.0305,20500.0
1698923807699.526,20501.0
1698923807720.0215,20489.0
1698923807740.517,20496.0
1698923807761.013,20492.0
1698923807781.5083,20493.0
1698923807802.0042,20494.0
1698923807822.4998,20493.0
1698923807842.9954,20501.0
1698923807863.4912,20502.0
1698923807883.9868,20510.0
1698923807904.4824,20513.0
1698923807924.978,20512.0
1698923807945.4736,20512.0
1698923807965.9692,20509.0
1698923807986.4648,20501.0
1698923808006.9607,20481.0
1698923808027.4563,20471.0
1698923808047.952,20462.0
1698923808068.4475,20448.0
1698923808088.943,20443.0
1698923808109.4387,20436.0
1698923808129.9346,20423.0
1698923808150.4302,20417.0
1698923808170.9258,20415.0
1698923808191.4214,20393.0
1698923808211.917,20391.0
1698923808232.4126,20377.0
1698923808252.9084,20365.0
1698923808273.404,20367.0
1698923808293.8997,20368.0
1698923808314.3953,20369.0
1698923808334.8909,20370.0
1698923808355.3865,20377.0
1698923808375.882,20388.0
1698923808396.378,20390.0
1698923808416.8735,20396.0
1698923808437.3691,20407.0
1698923808457.8647,20408.0
1698923808478.3604,20405.0
1698923808498.856,20401.0
1698923808519.3518,20393.0
1698923808539.8474,20380.0
1698923808560.343,20359.0
1698923808580.8386,20344.0
1698923808601.3342,20328.0
1698923808621.8298,20322.0
1698923808642.3257,20303.0
1698923808662.8213,20297.0
1698923808683.317,20280.0
1698923808703.8125,20278.0
1698923808724.308,20268.0
1698923808744.8037,20264.0
1698923808765.2993,20264.0
1698923808785.7952,20259.0
1698923808806.2908,20260.0
1698923808826.7864,20259.0
1698923808847.282,20261.0
1698923808867.7776,20258.0
1698923808888.2732,20267.0
1698923808908.769,20274.0
1698923808929.2646,20279.0
1698923808949.7605,20288.0
1698923808970.256,20290.0
1698923808990.7517,20289.0
1698923809011.247,20293.0
1698923809031.743,20290.0
1698923809052.2383,20295.0
1698923809072.734,20289.0
1698923809093.2295,20285.0
1698923809113.725,20258.0
1698923809134.221,20248.0
1698923809154.7166,20233.0
1698923809175.2124,20226.0
1698923809195.708,20222.0
1698923809216.2036,20208.0
1698923809236.6992,20193.0
1698923809257.1948,20176.0
1698923809277.6904,20156.0
1698923809298.1863,20163.0
1698923809318.682,20152.0
1698923809339.1775,20152.0
1698923809359.673,20154.0
1698923809380.1687,20158.0
1698923809400.6643,20164.0
1698923809421.1602,20171.0
1698923809441.6558,20180.0
1698923809462.1514,20184.0
1698923809482.647,20197.0
1698923809503.1426,20206.0
1698923809523.6382,20207.0
1698923809544.1338,20221.0
1698923809564.6296,20229.0
1698923809585.1252,20239.0
1698923809605.6208,20242.0
1698923809626.1165,20241.0
1698923809646.612,20235.0
1698923809667.1077,20219.0
1698923809687.6035,20206.0
1698923809708.099,20191.0
1698923809728.5947,20186.0
1698923809749.0903,20177.0
1698923809769.586,20167.0
1698923809790.0815,20153.0
1698923809810.5774,20148.0
1698923809831.073,20142.0
1698923809851.5686,20141.0
1698923809872.0642,20148.0
1698923809892.5598,20151.0
1698923809913.0554,20146.0
1698923809933.551,20150.0
1698923809954.0469,20163.0
1698923809974.5425,20156.0
1698923809995.038,20163.0
1698923810015.5337,20167.0
1698923810036.0293,20173.0
1698923810056.525,20171.0
1698923810077.0208,20184.0
1698923810097.5164,20187.0
1698923810118.012,20186.0
1698923810138.5076,20192.0
1698923810159.0032,20195.0
1698923810179.4988,20185.0
1698923810199.9946,20178.0
1698923810220.4902,20168.0
1698923810240.9858,20145.0
1698923810261.4814,20133.0
1698923810281.977,20122.0
1698923810302.473,20111.0
1698923810322.9685,20093.0
1698923810343.464,20079.0
1698923810363.9597,20074.0
1698923810384.455,20061.0
1698923810404.951,20067.0
1698923810425.4463,20066.0
1698923810445.942,20074.0
1698923810466.438,20077.0
1698923810486.9336,20084.0
1698923810507.4292,20095.0
1698923810527.9248,20099.0
1698923810548.4204,20115.0
1698923810568.916,20119.0
1698923810589.4116,20131.0
1698923810609.9077,20134.0
1698923810630.403,20143.0
1698923810650.8987,20151.0
1698923810671.3943,20153.0
1698923810691.89,20164.0
1698923810712.3855,20164.0
1698923810732.881,20160.0
1698923810753.377,20150.0
1698923810773.8726,20138.0
1698923810794.3682,20130.0
1698923810814.8638,20115.0
1698923810835.3594,20108.0
1698923810855.8552,20106.0
1698923810876.3508,20096.0
1698923810896.8464,20095.0
1698923810917.342,20081.0
1698923810937.8376,20082.0
1698923810958.3333,20090.0
1698923810978.8289,20087.0
1698923810999.3247,20089.0
1698923811019.8203,20091.0
1698923811040.316,20092.0
1698923811060.8115,20096.0
1698923811081.3071,20098.0
1698923811101.8027,20108.0
1698923811122.2986,20104.0
1698923811142.7942,20109.0
1698923811163.2898,20112.0
1698923811183.7854,20112.0
1698923811204.281,20122.0
1698923811224.7766,20128.0
1698923811245.2725,20127.0
1698923811265.768,20118.0
1698923811286.2637,20111.0
1698923811306.7593,20092.0
1698923811327.255,20078.0
1698923811347.7505,20062.0
1698923811368.246,20053.0
1698923811388.742,20041.0
1698923811409.2375,20028.0
1698923811429.7332,20015.0
1698923811450.2288,20006.0
1698923811470.7244,19995.0
1698923811491.22,19991.0
1698923811511.7158,19993.0
1698923811532.2114,19993.0
1698923811552.707,19997.0
1698923811573.2026,20002.0
1698923811593.6982,20009.0
1698923811614.1938,20023.0
1698923811634.6897,20037.0
1698923811655.1853,20041.0
1698923811675.681,20048.0
1698923811696.1765,20056.0
1698923811716.672,20068.0
1698923811737.1675,20074.0
1698923811757.663,20079.0
1698923811778.1592,20084.0
1698923811798.6548,20080.0
1698923811819.1504,20083.0
1698923811839.646,20073.0
1698923811860.1416,20055.0
1698923811880.6372,20043.0
1698923811901.133,20034.0
1698923811921.629,20014.0
1698923811942.1245,20007.0
1698923811962.62,19998.0
1698923811983.1155,19989.0
1698923812003.611,19981.0
1698923812024.107,19977.0
1698923812044.6023,19982.0
1698923812065.098,19974.0
1698923812085.5938,19964.0
1698923812106.0894,19969.0
1698923812126.585,19960.0
1698923812147.0806,19957.0
1698923812167.5764,19959.0
1698923812188.072,19956.0
1698923812208.5676,19957.0
1698923812229.0632,19956.0
1698923812249.5588,19950.0
1698923812270.0544,19948.0
1698923812290.5503,19941.0
1698923812311.046,19936.0
1698923812331.5415,19931.0
1698923812352.037,19916.0
1698923812372.5327,19899.0
1698923812393.0283,19886.0
1698923812413.5242,19875.0
1698923812434.0198,19851.0
1698923812454.5154,19834.0
1698923812475.011,19829.0
1698923812495.5066,19821.0
1698923812516.0022,19804.0
1698923812536.4978,19795.0
1698923812556.9937,19790.0
1698923812577.4893,19794.0
1698923812597.9849,19796.0
1698923812618.4805,19805.0
1698923812638.976,19806.0
1698923812659.4717,19818.0
1698923812679.9675,19824.0
1698923812700.4631,19836.0
1698923812720.9587,19843.0
1698923812741.4543,19845.0
1698923812761.95,19859.0
1698923812782.4456,19871.0
1698923812802.9414,19878.0
1698923812823.437,19880.0
1698923812843.9326,19889.0
1698923812864.4282,19897.0
1698923812884.9238,19886.0
1698923812905.4194,19891.0
1698923812925.915,19870.0
1698923812946.411,19867.0
1698923812966.9065,19853.0
1698923812987.402,19837.0
1698923813007.8977,19828.0
1698923813028.3933,19821.0
1698923813048.889,19813.0
1698923813069.3848,19808.0
1698923813089.8804,19804.0
1698923813110.376,19806.0
1698923813130.8716,19809.0
1698923813151.3672,19818.0
1698923813171.8628,19811.0
1698923813192.3586,19817.0
1698923813212.8542,19817.0
1698923813233.35,19819.0
1698923813253.8457,19812.0
1698923813274.341,19807.0
1698923813294.837,19805.0
1698923813315.3325,19803.0
1698923813335.828,19806.0
1698923813356.3235,19808.0
1698923813376.819,19802.0
1698923813397.315,19800.0
1698923813417.8103,19795.0
1698923813438.3062,19781.0
1698923813458.802,19765.0
1698923813479.2976,19748.0
1698923813499.7932,19730.0
1698923813520.2888,19720.0
1698923813540.7844,19706.0
1698923813561.28,19696.0
1698923813581.776,19690.0
1698923813602.2715,19686.0
1698923813622.767,19680.0
1698923813643.2627,19678.0
1698923813663.7583,19680.0
1698923813684.254,19689.0
1698923813704.7495,19689.0
1698923813725.2454,19701.0
1698923813745.741,19703.0
1698923813766.2366,19720.0
1698923813786.7322,19728.0
1698923813807.2278,19736.0
1698923813827.7234,19751.0
1698923813848.2192,19759.0
1698923813868.7148,19771.0
1698923813889.2104,19775.0
1698923813909.706,19788.0
1698923813930.2017,19786.0
1698923813950.6973,19792.0
1698923813971.1929,19788.0
1698923813991.6887,19787.0
1698923814012.1843,19770.0
1698923814032.68,19770.0
1698923814053.1755,19762.0
1698923814073.6711,19756.0
1698923814094.1667,19748.0
1698923814114.6626,19742.0
1698923814135.1582,19738.0
1698923814155.6538,19722.0
1698923814176.1494,19731.0
1698923814196.645,19731.0
1698923814217.1406,19736.0
1698923814237.6365,19736.0
1698923814258.132,19737.0
1698923814278.6277,19748.0
1698923814299.1233,19742.0
1698923814319.619,19742.0
1698923814340.1145,19740.0
1698923814360.61,19737.0
1698923814381.106,19738.0
1698923814401.6016,19732.0
1698923814422.0972,19742.0
1698923814442.5928,19740.0
1698923814463.0884,19739.0
1698923814483.584,19734.0
1698923814504.0798,19722.0
1698923814524.5754,19714.0
1698923814545.071,19700.0
1698923814565.567,19687.0
1698923814586.0625,19685.0
1698923814606.558,19660.0
1698923814627.0537,19657.0
1698923814647.5493,19644.0
1698923814668.045,19635.0
1698923814688.5403,19629.0
1698923814709.036,19631.0
1698923814729.5315,19626.0
1698923814750.027,19631.0
1698923814770.5232,19622.0
1698923814791.0188,19617.0
1698923814811.5144,19617.0
1698923814832.01,19628.0
1698923814852.5056,19632.0
1698923814873.0012,19630.0
1698923814893.497,19642.0
1698923814913.993,19658.0
1698923814934.4883,19664.0
1698923814954.984,19676.0
1698923814975.4795,19682.0
1698923814995.975,19693.0
1698923815016.471,19697.0
1698923815036.9666,19708.0
1698923815057.4622,19711.0
1698923815077.9578,19697.0
1698923815098.4534,19698.0
1698923815118.949,19690.0
1698923815139.4446,19684.0
1698923815159.9404,19677.0
1698923815180.436,19678.0
1698923815200.9316,19662.0
1698923815221.4272,19659.0
1698923815241.9229,19656.0
1698923815262.4185,19660.0
1698923815282.9143,19656.0
1698923815303.41,19661.0
1698923815323.9055,19652.0
1698923815344.4011,19655.0
1698923815364.8967,19657.0
1698923815385.3923,19659.0
1698923815405.8882,19663.0
1698923815426.3838,19659.0
1698923815446.8794,19658.0
1698923815467.375,19658.0
1698923815487.8706,19658.0
1698923815508.3662,19657.0
1698923815528.8618,19659.0
1698923815549.3577,19651.0
1698923815569.8533,19651.0
1698923815590.3489,19644.0
1698923815610.8445,19631.0
1698923815631.34,19612.0
1698923815651.8357,19597.0
1698923815672.3315,19586.0
1698923815692.8271,19570.0
1698923815713.3228,19560.0
1698923815733.8184,19554.0
1698923815754.314,19545.0
1698923815774.8096,19547.0
1698923815795.3054,19543.0
1698923815815.801,19539.0
1698923815836.2966,19542.0
1698923815856.7922,19549.0
1698923815877.2878,19545.0
1698923815897.7834,19548.0
1698923815918.279,19550.0
1698923815938.775,19547.0
1698923815959.2705,19549.0
1698923815979.766,19554.0
1698923816000.2617,19554.0
1698923816020.757,19548.0
1698923816041.253,19560.0
1698923816061.7488,19566.0
1698923816082.2444,19577.0
1698923816102.74,19582.0
1698923816123.2356,19592.0
1698923816143.7312,19605.0
1698923816164.2268,19602.0
1698923816184.723,19605.0
1698923816205.2185,19604.0
1698923816225.714,19603.0
1698923816246.2097,19601.0
1698923816266.705,19597.0
1698923816287.2007,19604.0
1698923816307.6963,19600.0
1698923816328.192,19609.0
1698923816348.6875,19607.0
1698923816369.183,19623.0
1698923816389.679,19623.0
1698923816410.1746,19614.0
1698923816430.6702,19615.0
1698923816451.166,19618.0
1698923816471.6616,19621.0
1698923816492.1572,19621.0
1698923816512.6528,19620.0
1698923816533.1484,19617.0
1698923816553.644,19619.0
1698923816574.14,19618.0
1698923816594.6355,19616.0
1698923816615.131,19615.0
1698923816635.6267,19614.0
1698923816656.1223,19614.0
1698923816676.618,19616.0
1698923816697.1135,19614.0
1698923816717.6094,19613.0
1698923816738.105,19613.0
1698923816758.6006,19608.0
1698923816779.0962,19604.0
1698923816799.5918,19588.0
1698923816820.0874,19583.0
1698923816840.5833,19584.0
1698923816861.0789,19580.0
1698923816881.5745,19578.0
1698923816902.07,19576.0
1698923816922.5657,19576.0
1698923816943.0613,19570.0
1698923816963.5571,19577.0
1698923816984.0527,19578.0
1698923817004.5483,19569.0
1698923817025.044,19576.0
1698923817045.5396,19572.0
1698923817066.0352,19577.0
1698923817086.5308,19576.0
1698923817107.0266,19581.0
1698923817127.5222,19586.0
1698923817148.0178,19594.0
1698923817168.5134,19594.0
1698923817189.009,19594.0
1698923817209.5046,19594.0
1698923817230.0005,19593.0
1698923817250.496,19589.0
1698923817270.9917,19573.0
1698923817291.4873,19561.0
1698923817311.983,19555.0
1698923817332.4785,19547.0
1698923817352.974,19546.0
1698923817373.47,19548.0
1698923817393.9656,19553.0
1698923817414.4612,19553.0
1698923817434.9568,19569.0
1698923817455.4524,19570.0
1698923817475.948,19580.0
1698923817496.4438,19587.0
1698923817516.9397,19592.0
1698923817537.435,19603.0
1698923817557.931,19608.0
1698923817578.4265,19612.0
1698923817598.922,19622.0
1698923817619.4175,19626.0
1698923817639.913,19629.0
1698923817660.409,19632.0
1698923817680.9043,19626.0
1698923817701.4,19627.0
1698923817721.8958,19623.0
1698923817742.3914,19616.0
1698923817762.8872,19614.0
1698923817783.3828,19610.0
1698923817803.8784,19594.0
1698923817824.374,19592.0
1698923817844.8696,19581.0
1698923817865.3652,19573.0
1698923817885.861,19565.0
1698923817906.3567,19561.0
1698923817926.8523,19558.0
1698923817947.348,19553.0
1698923817967.8435,19559.0
1698923817988.339,19567.0
1698923818008.835,19578.0
1698923818029.3306,19583.0
1698923818049.8262,19601.0
1698923818070.3218,19606.0
1698923818090.8174,19611.0
1698923818111.313,19613.0
1698923818131.8086,19628.0
1698923818152.3044,19628.0
1698923818172.8,19632.0
1698923818193.2957,19637.0
1698923818213.7913,19636.0
1698923818234.2869,19649.0
1698923818254.7825,19655.0
1698923818275.2783,19655.0
1698923818295.774,19652.0
1698923818316.2695,19652.0
1698923818336.7651,19649.0
1698923818357.2607,19641.0
1698923818377.7563,19632.0
1698923818398.2522,19616.0
1698923818418.7478,19605.0
1698923818439.2434,19585.0
1698923818459.739,19572.0
1698923818480.2346,19564.0
1698923818500.7302,19564.0
1698923818521.2258,19549.0
1698923818541.7217,19545.0
1698923818562.2173,19538.0
1698923818582.713,19550.0
1698923818603.2085,19554.0
1698923818623.704,19560.0
1698923818644.1997,19566.0
1698923818664.6956,19574.0
1698923818685.1912,19579.0
1698923818705.6868,19585.0
1698923818726.1824,19578.0
1698923818746.678,19589.0
1698923818767.1736,19586.0
1698923818787.6694,19594.0
1698923818808.165,19587.0
1698923818828.6606,19589.0
1698923818849.1562,19586.0
1698923818869.652,19577.0
1698923818890.1477,19573.0
1698923818910.643,19561.0
1698923818931.139,19560.0
1698923818951.6345,19552.0
1698923818972.13,19542.0
1698923818992.6255,19537.0
1698923819013.121,19530.0
1698923819033.617,19527.0
1698923819054.1128,19528.0
1698923819074.6084,19525.0
1698923819095.104,19518.0
1698923819115.5996,19514.0
1698923819136.0952,19514.0
1698923819156.5908,19507.0
1698923819177.087,19504.0
1698923819197.5825,19507.0
1698923819218.078,19504.0
1698923819238.5735,19508.0
1698923819259.069,19504.0
1698923819279.5647,19509.0
1698923819300.0603,19513.0
1698923819320.5562,19525.0
1698923819341.0518,19522.0
1698923819361.5474,19531.0
1698923819382.043,19531.0
1698923819402.5386,19531.0
1698923819423.0342,19532.0
1698923819443.53,19529.0
1698923819464.0256,19525.0
1698923819484.5212,19520.0
1698923819505.0168,19515.0
1698923819525.5125,19516.0
1698923819546.008,19513.0
1698923819566.504,19515.0
1698923819586.9995,19509.0
1698923819607.495,19514.0
1698923819627.9907,19512.0
1698923819648.4863,19515.0
1698923819668.982,19519.0
1698923819689.4775,19520.0
1698923819709.9734,19516.0
1698923819730.469,19520.0
1698923819750.9646,19520.0
1698923819771.4602,19520.0
1698923819791.9558,19519.0
1698923819812.4514,19512.0
1698923819832.9473,19503.0
1698923819853.4429,19511.0
1698923819873.9385,19508.0
1698923819894.434,19505.0
1698923819914.9297,19514.0
1698923819935.4253,19508.0
1698923819955.9211,19508.0
1698923819976.4167,19505.0
1698923819996.9124,19499.0
1698923820017.408,19497.0
1698923820037.9036,19493.0
1698923820058.3992,19491.0
1698923820078.8948,19496.0
1698923820099.3906,19484.0
1698923820119.8862,19483.0
1698923820140.3818,19481.0
1698923820160.8774,19479.0
1698923820181.373,19481.0
1698923820201.869,19479.0
1698923820222.3645,19487.0
1698923820242.86,19485.0
1698923820263.3557,19484.0
1698923820283.8513,19482.0
1698923820304.347,19486.0
1698923820324.8423,19488.0
1698923820345.3384,19484.0
1698923820365.834,19486.0
1698923820386.3296,19485.0
1698923820406.8252,19497.0
1698923820427.3208,19498.0
1698923820447.8164,19496.0
1698923820468.312,19489.0
1698923820488.808,19489.0
1698923820509.3037,19488.0
1698923820529.799,19480.0
1698923820550.295,19481.0
1698923820570.7903,19473.0
1698923820591.286,19466.0
1698923820611.7815,19466.0
1698923820632.277,19469.0
1698923820652.773,19468.0
1698923820673.2686,19467.0
1698923820693.7642,19463.0
1698923820714.2598,19471.0
1698923820734.7554,19471.0
1698923820755.2512,19468.0
1698923820775.7468,19468.0
1698923820796.2424,19460.0
1698923820816.738,19455.0
1698923820837.2336,19454.0
1698923820857.7292,19457.0
1698923820878.225,19453.0
1698923820898.7207,19458.0
1698923820919.2163,19459.0
1698923820939.712,19464.0
1698923820960.2075,19471.0
1698923820980.7031,19472.0
1698923821001.199,19475.0
1698923821021.6946,19485.0
1698923821042.1902,19488.0
1698923821062.6858,19491.0
1698923821083.1814,19494.0
1698923821103.677,19501.0
1698923821124.1726,19504.0
1698923821144.6685,19504.0
1698923821165.164,19514.0
1698923821185.6597,19525.0
1698923821206.1553,19536.0
1698923821226.651,19544.0
1698923821247.1465,19550.0
1698923821267.6423,19553.0
1698923821288.138,19566.0
1698923821308.6335,19566.0
1698923821329.1292,19570.0
1698923821349.6248,19573.0
1698923821370.1204,19579.0
1698923821390.6162,19577.0
1698923821411.1118,19581.0
1698923821431.6074,19579.0
1698923821452.103,19579.0
1698923821472.5986,19575.0
1698923821493.0942,19575.0
1698923821513.5898,19575.0
1698923821534.0857,19575.0
1698923821554.5813,19575.0
1698923821575.077,19573.0
1698923821595.5725,19568.0
1698923821616.068,19562.0
1698923821636.5637,19554.0
1698923821657.0596,19560.0
1698923821677.5552,19552.0
1698923821698.0508,19553.0
1698923821718.5464,19553.0
1698923821739.042,19557.0
1698923821759.5376,19553.0
1698923821780.0334,19549.0
1698923821800.529,19549.0
1698923821821.025,19560.0
1698923821841.5205,19567.0
1698923821862.016,19566.0
1698923821882.5117,19575.0
1698923821903.007,19576.0
1698923821923.503,19581.0
1698923821943.9983,19575.0
1698923821964.494,19574.0
1698923821984.9895,19574.0
1698923822005.4854,19579.0
1698923822025.981,19580.0
1698923822046.4768,19578.0
1698923822066.9724,19583.0
1698923822087.468,19575.0
1698923822107.9636,19574.0
1698923822128.4592,19563.0
1698923822148.9548,19559.0
1698923822169.4507,19547.0
1698923822189.9463,19547.0
1698923822210.442,19543.0
1698923822230.9375,19529.0
1698923822251.433,19527.0
1698923822271.9287,19522.0
1698923822292.4243,19520.0
1698923822312.9202,19522.0
1698923822333.4158,19525.0
1698923822353.9114,19532.0
1698923822374.407,19537.0
1698923822394.9026,19545.0
1698923822415.3982,19548.0
1698923822435.894,19552.0
1698923822456.3896,19553.0
1698923822476.8853,19556.0
1698923822497.3809,19557.0
1698923822517.8765,19566.0
1698923822538.372,19570.0
1698923822558.868,19572.0
1698923822579.3635,19572.0
1698923822599.8591,19578.0
1698923822620.3547,19581.0
1698923822640.8503,19571.0
1698923822661.346,19570.0
1698923822681.8416,19575.0
1698923822702.3374,19567.0
1698923822722.833,19558.0
1698923822743.3286,19558.0
1698923822763.8242,19554.0
1698923822784.3198,19548.0
1698923822804.8154,19548.0
1698923822825.3113,19549.0
1698923822845.807,19544.0
1698923822866.3025,19546.0
1698923822886.798,19547.0
1698923822907.2937,19560.0
1698923822927.7893,19562.0
1698923822948.2852,19567.0
1698923822968.7808,19571.0
1698923822989.2764,19571.0
1698923823009.772,19577.0
1698923823030.2676,19568.0
1698923823050.7632,19565.0
1698923823071.2588,19565.0
1698923823091.7546,19564.0
1698923823112.2502,19573.0
1698923823132.7458,19569.0
1698923823153.2417,19569.0
1698923823173.737,19562.0
1698923823194.233,19564.0
1698923823214.7285,19553.0
1698923823235.224,19538.0
1698923823255.7195,19540.0
1698923823276.215,19524.0
1698923823296.711,19514.0
1698923823317.2063,19513.0
1698923823337.7024,19501.0
1698923823358.198,19507.0
1698923823378.6936,19513.0
1698923823399.1892,19520.0
1698923823419.6848,19532.0
1698923823440.1804,19545.0
1698923823460.676,19555.0
1698923823481.172,19551.0
1698923823501.6675,19561.0
1698923823522.163,19565.0
1698923823542.6587,19568.0
1698923823563.1543,19566.0
1698923823583.65,19582.0
1698923823604.1458,19580.0
1698923823624.6414,19583.0
1698923823645.137,19601.0
1698923823665.6326,19598.0
1698923823686.1282,19606.0
1698923823706.6238,19612.0
1698923823727.1196,19608.0
1698923823747.6152,19592.0
1698923823768.1108,19593.0
1698923823788.6064,19593.0
1698923823809.102,19587.0
1698923823829.5977,19587.0
1698923823850.0933,19587.0
1698923823870.589,19584.0
1698923823891.0847,19583.0
1698923823911.5803,19579.0
1698923823932.076,19584.0
1698923823952.5715,19591.0
1698923823973.0671,19596.0
1698923823993.563,19609.0
1698923824014.0586,19622.0
1698923824034.5542,19618.0
1698923824055.0498,19627.0
1698923824075.5454,19623.0
1698923824096.041,19626.0
1698923824116.5366,19617.0
1698923824137.0325,19621.0
1698923824157.528,19627.0
1698923824178.0237,19639.0
1698923824198.5193,19632.0
1698923824219.015,19629.0
1698923824239.5105,19621.0
1698923824260.0063,19626.0
1698923824280.502,19628.0
1698923824300.9976,19625.0
1698923824321.4932,19630.0
1698923824341.9888,19634.0
1698923824362.4844,19627.0
1698923824382.9802,19625.0
1698923824403.4758,19623.0
1698923824423.9714,19630.0
1698923824444.467,19628.0
1698923824464.9626,19617.0
1698923824485.4585,19618.0
1698923824505.954,19617.0
1698923824526.4497,19612.0
1698923824546.9453,19609.0
1698923824567.441,19603.0
1698923824587.9363,19599.0
1698923824608.432,19607.0
1698923824628.9275,19603.0
1698923824649.4236,19612.0
1698923824669.9192,19614.0
1698923824690.4148,19614.0
1698923824710.9104,19620.0
1698923824731.406,19623.0
1698923824751.9016,19631.0
1698923824772.3977,19637.0
1698923824792.893,19649.0
1698923824813.389,19657.0
1698923824833.8845,19653.0
1698923824854.38,19655.0
1698923824874.8755,19644.0
1698923824895.371,19641.0
1698923824915.867,19635.0
1698923824936.3623,19630.0
1698923824956.8582,19627.0
1698923824977.3538,19626.0
1698923824997.8494,19617.0
1698923825018.345,19616.0
1698923825038.8408,19614.0
1698923825059.3364,19614.0
1698923825079.832,19618.0
1698923825100.3276,19613.0
1698923825120.8232,19625.0
1698923825141.3188,19628.0
1698923825161.8147,19635.0
1698923825182.3103,19634.0
1698923825202.806,19641.0
1698923825223.3015,19644.0
1698923825243.797,19644.0
1698923825264.2927,19650.0
1698923825284.7883,19659.0
1698923825305.2842,19659.0
1698923825325.7798,19665.0
1698923825346.2754,19661.0
1698923825366.771,19663.0
1698923825387.2666,19659.0
1698923825407.7622,19661.0
1698923825428.258,19657.0
1698923825448.7537,19648.0
1698923825469.2493,19649.0
1698923825489.7449,19647.0
1698923825510.2405,19646.0
1698923825530.736,19639.0
1698923825551.232,19639.0
1698923825571.7275,19642.0
1698923825592.2231,19636.0
1698923825612.7188,19630.0
1698923825633.2144,19641.0
1698923825653.71,19638.0
1698923825674.2056,19639.0
1698923825694.7014,19639.0
1698923825715.197,19647.0
1698923825735.6926,19646.0
1698923825756.1882,19650.0
1698923825776.6838,19648.0
1698923825797.1794,19656.0
1698923825817.6753,19652.0
1698923825838.171,19662.0
1698923825858.6665,19650.0
1698923825879.162,19655.0
1698923825899.6577,19670.0
1698923825920.1533,19667.0
1698923825940.6492,19671.0
1698923825961.1448,19672.0
1698923825981.6404,19674.0
1698923826002.136,19669.0
1698923826022.6316,19667.0
1698923826043.1272,19659.0
1698923826063.6228,19659.0
1698923826084.119,19651.0
1698923826104.6145,19653.0
1698923826125.11,19650.0
1698923826145.6057,19650.0
1698923826166.101,19648.0
1698923826186.5967,19657.0
1698923826207.0923,19655.0
1698923826227.588,19667.0
1698923826248.0835,19670.0
1698923826268.579,19678.0
1698923826289.075,19691.0
1698923826309.5706,19701.0
1698923826330.0664,19707.0
1698923826350.562,19708.0
1698923826371.0576,19709.0
1698923826391.5532,19715.0
1698923826412.0488,19715.0
1698923826432.5444,19720.0
1698923826453.04,19726.0
1698923826473.536,19734.0
1698923826494.0315,19722.0
1698923826514.527,19722.0
1698923826535.0227,19717.0
1698923826555.5183,19715.0
1698923826576.014,19712.0
1698923826596.5098,19703.0
1698923826617.0054,19712.0
1698923826637.501,19705.0
1698923826657.9966,19703.0
1698923826678.4922,19702.0
1698923826698.9878,19699.0
1698923826719.4836,19705.0
1698923826739.9792,19703.0
1698923826760.4749,19700.0
1698923826780.9705,19709.0
1698923826801.466,19707.0
1698923826821.9617,19699.0
1698923826842.4573,19699.0
1698923826862.9531,19704.0
1698923826883.4487,19708.0
1698923826903.9443,19706.0
1698923826924.44,19715.0
1698923826944.9355,19713.0
1698923826965.4312,19720.0
1698923826985.927,19722.0
1698923827006.4226,19727.0
1698923827026.9182,19729.0
1698923827047.4138,19726.0
1698923827067.9094,19724.0
1698923827088.405,19730.0
1698923827108.901,19727.0
1698923827129.3965,19728.0
1698923827149.892,19720.0
1698923827170.3877,19717.0
1698923827190.8833,19716.0
1698923827211.379,19710.0
1698923827231.8745,19706.0
1698923827252.3704,19705.0
1698923827272.866,19704.0
1698923827293.3616,19697.0
1698923827313.8572,19701.0
1698923827334.3528,19701.0
1698923827354.8484,19706.0
1698923827375.3442,19706.0
1698923827395.8398,19711.0
1698923827416.3354,19716.0
1698923827436.831,19719.0
1698923827457.327,19723.0
1698923827477.8225,19732.0
1698923827498.318,19742.0
1698923827518.8137,19742.0
1698923827539.309,19744.0
1698923827559.805,19750.0
1698923827580.3003,19742.0
1698923827600.796,19745.0
1698923827621.2915,19742.0
1698923827641.7876,19742.0
1698923827662.2832,19737.0
1698923827682.7788,19741.0
1698923827703.2744,19738.0
1698923827723.77,19734.0
1698923827744.2656,19738.0
1698923827764.7617,19742.0
1698923827785.257,19739.0
1698923827805.7527,19739.0
1698923827826.2483,19735.0
1698923827846.744,19734.0
1698923827867.2395,19735.0
1698923827887.735,19733.0
1698923827908.231,19731.0
1698923827928.7266,19738.0
1698923827949.2222,19735.0
1698923827969.7178,19736.0
1698923827990.2134,19730.0
1698923828010.709,19742.0
1698923828031.2048,19747.0
1698923828051.7004,19748.0
1698923828072.196,19759.0
1698923828092.6917,19761.0
1698923828113.1873,19763.0
1698923828133.6829,19764.0
1698923828154.1787,19765.0
1698923828174.6743,19760.0
1698923828195.17,19760.0
1698923828215.6655,19756.0
1698923828236.1611,19756.0
1698923828256.6567,19761.0
1698923828277.1523,19760.0
1698923828297.6482,19753.0
1698923828318.1438,19749.0
1698923828338.6394,19753.0
1698923828359.135,19753.0
1698923828379.6306,19751.0
1698923828400.1262,19756.0
1698923828420.622,19751.0
1698923828441.1177,19754.0
1698923828461.6133,19758.0
1698923828482.109,19763.0
1698923828502.6045,19769.0
1698923828523.1,19773.0
1698923828543.596,19779.0
1698923828564.0916,19783.0
1698923828584.5872,19787.0
1698923828605.0828,19792.0
1698923828625.5784,19786.0
1698923828646.074,19787.0
1698923828666.5696,19781.0
1698923828687.0654,19774.0
1698923828707.561,19766.0
1698923828728.0566,19760.0
1698923828748.5522,19762.0
1698923828769.048,19753.0
1698923828789.5437,19745.0
1698923828810.0393,19747.0
1698923828830.535,19748.0
1698923828851.0305,19751.0
1698923828871.526,19750.0
1698923828892.0215,19747.0
1698923828912.517,19749.0
1698923828933.0132,19747.0
1698923828953.5088,19741.0
1698923828974.0044,19747.0
1698923828994.5,19744.0
1698923829014.9956,19744.0
1698923829035.4912,19748.0
1698923829055.9868,19742.0
1698923829076.483,19744.0
1698923829096.9785,19751.0
1698923829117.474,19749.0
1698923829137.9695,19748.0
1698923829158.465,19753.0
1698923829178.9607,19752.0
1698923829199.4563,19754.0
1698923829219.952,19758.0
1698923829240.4478,19757.0
1698923829260.9434,19751.0
1698923829281.439,19744.0
1698923829301.9346,19747.0
1698923829322.4304,19749.0
1698923829342.926,19747.0
1698923829363.4216,19742.0
1698923829383.9172,19745.0
1698923829404.4128,19740.0
1698923829424.9084,19746.0
1698923829445.404,19737.0
1698923829465.9,19733.0
1698923829486.3955,19742.0
1698923829506.891,19741.0
1698923829527.3867,19741.0
1698923829547.8823,19745.0
1698923829568.378,19737.0
1698923829588.8738,19736.0
1698923829609.3694,19737.0
1698923829629.865,19735.0
1698923829650.3606,19742.0
1698923829670.8562,19740.0
1698923829691.3518,19751.0
1698923829711.8477,19758.0
1698923829732.3433,19755.0
1698923829752.8389,19760.0
1698923829773.3345,19756.0
1698923829793.83,19752.0
1698923829814.3257,19747.0
1698923829834.8213,19750.0
1698923829855.3171,19747.0
1698923829875.8127,19736.0
1698923829896.3083,19741.0
1698923829916.804,19732.0
1698923829937.2996,19734.0
1698923829957.7952,19734.0
1698923829978.291,19730.0
1698923829998.7866,19730.0
1698923830019.2822,19741.0
1698923830039.7778,19732.0
1698923830060.2734,19731.0
1698923830080.769,19732.0
1698923830101.265,19734.0
1698923830121.7605,19726.0
1698923830142.256,19718.0
1698923830162.7517,19720.0
1698923830183.2473,19723.0
1698923830203.743,19721.0
1698923830224.2383,19720.0
1698923830244.7344,19722.0
1698923830265.23,19714.0
1698923830285.7256,19731.0
1698923830306.2212,19731.0
1698923830326.7168,19736.0
1698923830347.2124,19738.0
1698923830367.7085,19729.0
1698923830388.204,19733.0
1698923830408.6997,19741.0
1698923830429.195,19743.0
1698923830449.691,19745.0
1698923830470.1863,19742.0
1698923830490.682,19746.0
1698923830511.1775,19745.0
1698923830531.673,19747.0
1698923830552.169,19750.0
1698923830572.6646,19747.0
1698923830593.1602,19742.0
1698923830613.6558,19739.0
1698923830634.1516,19747.0
1698923830654.6472,19744.0
1698923830675.1428,19749.0
1698923830695.6384,19752.0
1698923830716.134,19749.0
1698923830736.6296,19756.0
1698923830757.1255,19758.0
1698923830777.621,19774.0
1698923830798.1167,19775.0
1698923830818.6123,19780.0
1698923830839.108,19793.0
1698923830859.6035,19796.0
1698923830880.099,19802.0
1698923830900.595,19808.0
1698923830921.0906,19810.0
1698923830941.5862,19812.0
1698923830962.0818,19806.0
1698923830982.5774,19799.0
1698923831003.073,19796.0
1698923831023.5688,19788.0
1698923831044.0645,19780.0
1698923831064.56,19779.0
1698923831085.0557,19774.0
1698923831105.5513,19770.0
1698923831126.0469,19772.0
1698923831146.5427,19774.0
1698923831167.0383,19778.0
1698923831187.534,19776.0
1698923831208.0295,19772.0
1698923831228.5251,19770.0
1698923831249.0208,19764.0
1698923831269.5164,19763.0
1698923831290.0122,19760.0
1698923831310.5078,19756.0
1698923831331.0034,19760.0
1698923831351.499,19758.0
1698923831371.9946,19763.0
1698923831392.4902,19762.0
1698923831412.986,19765.0
1698923831433.4817,19761.0
1698923831453.9773,19771.0
1698923831474.473,19772.0
1698923831494.9685,19772.0
1698923831515.464,19773.0
1698923831535.96,19772.0
1698923831556.4556,19771.0
1698923831576.9512,19774.0
1698923831597.4468,19775.0
1698923831617.9424,19774.0
1698923831638.438,19771.0
1698923831658.9336,19773.0
1698923831679.4294,19770.0
1698923831699.925,19773.0
1698923831720.421,19771.0
1698923831740.9165,19774.0
1698923831761.412,19769.0
1698923831781.9077,19769.0
1698923831802.4033,19772.0
1698923831822.899,19765.0
1698923831843.3943,19765.0
1698923831863.89,19768.0
1698923831884.3855,19769.0
1698923831904.881,19774.0
1698923831925.3772,19774.0
1698923831945.8728,19780.0
1698923831966.3684,19785.0
1698923831986.864,19791.0
1698923832007.3596,19795.0
1698923832027.8552,19799.0
1698923832048.3508,19804.0
1698923832068.8467,19802.0
1698923832089.3423,19806.0
1698923832109.838,19809.0
1698923832130.3335,19812.0
1698923832150.829,19811.0
1698923832171.3247,19810.0
1698923832191.8206,19807.0
1698923832212.3162,19812.0
1698923832232.8118,19806.0
1698923832253.3074,19809.0
1698923832273.803,19806.0
1698923832294.2986,19809.0
1698923832314.7944,19816.0
1698923832335.29,19812.0
1698923832355.7856,19807.0
1698923832376.2812,19802.0
1698923832396.7769,19801.0
1698923832417.2725,19793.0
1698923832437.768,19798.0
1698923832458.264,19799.0
1698923832478.7595,19797.0
1698923832499.2551,19799.0
1698923832519.7507,19795.0
1698923832540.2463,19791.0
1698923832560.742,19788.0
1698923832581.2378,19784.0
1698923832601.7334,19785.0
1698923832622.229,19783.0
1698923832642.7246,19790.0
1698923832663.2202,19791.0
1698923832683.7158,19788.0
1698923832704.2117,19790.0
1698923832724.7073,19796.0
1698923832745.203,19792.0
1698923832765.6985,19787.0
1698923832786.194,19791.0
1698923832806.6897,19790.0
1698923832827.1853,19796.0
1698923832847.6812,19798.0
1698923832868.1768,19791.0
1698923832888.6724,19791.0
1698923832909.168,19789.0
1698923832929.6636,19787.0
1698923832950.1592,19790.0
1698923832970.655,19785.0
1698923832991.1506,19788.0
1698923833011.6462,19793.0
1698923833032.1418,19792.0
1698923833052.6377,19798.0
1698923833073.133,19809.0
1698923833093.629,19813.0
1698923833114.1245,19813.0
1698923833134.62,19811.0
1698923833155.1155,19824.0
1698923833175.611,19827.0
1698923833196.107,19844.0
1698923833216.6023,19860.0
1698923833237.0984,19866.0
1698923833257.594,19867.0
1698923833278.0896,19871.0
1698923833298.5852,19872.0
1698923833319.0808,19871.0
1698923833339.5764,19875.0
1698923833360.0725,19878.0
1698923833380.568,19874.0
1698923833401.0637,19876.0
1698923833421.559,19875.0
1698923833442.0547,19870.0
1698923833462.5503,19878.0
1698923833483.046,19877.0
1698923833503.5415,19871.0
1698923833524.0374,19865.0
1698923833544.533,19861.0
1698923833565.0286,19860.0
1698923833585.5242,19859.0
1698923833606.0198,19859.0
1698923833626.5156,19856.0
1698923833647.0112,19855.0
1698923833667.5068,19850.0
1698923833688.0024,19843.0
1698923833708.498,19841.0
1698923833728.9937,19839.0
1698923833749.4895,19835.0
1698923833769.985,19840.0
1698923833790.4807,19846.0
1698923833810.9763,19845.0
1698923833831.472,19846.0
1698923833851.9675,19853.0
1698923833872.4634,19850.0
1698923833892.959,19847.0
1698923833913.4546,19850.0
1698923833933.9502,19853.0
1698923833954.4458,19853.0
1698923833974.9414,19857.0
1698923833995.437,19855.0
1698923834015.9329,19852.0
1698923834036.4285,19852.0
1698923834056.924,19853.0
1698923834077.4197,19851.0
1698923834097.9153,19852.0
1698923834118.411,19848.0
1698923834138.9067,19855.0
1698923834159.4023,19860.0
1698923834179.898,19863.0
1698923834200.3936,19856.0
1698923834220.8892,19863.0
1698923834241.3848,19863.0
1698923834261.8804,19863.0
1698923834282.3762,19867.0
1698923834302.8718,19870.0
1698923834323.3674,19878.0
1698923834343.863,19888.0
1698923834364.3586,19894.0
1698923834384.8542,19892.0
1698923834405.35,19894.0
1698923834425.8457,19892.0
1698923834446.3413,19895.0
1698923834466.837,19897.0
1698923834487.3325,19898.0
1698923834507.828,19903.0
1698923834528.324,19907.0
1698923834548.8196,19914.0
1698923834569.3152,19915.0
1698923834589.8108,19905.0
1698923834610.3064,19918.0
1698923834630.802,19923.0
1698923834651.2976,19917.0
1698923834671.7937,19915.0
1698923834692.289,19915.0
1698923834712.785,19911.0
1698923834733.2805,19910.0
1698923834753.776,19906.0
1698923834774.2715,19900.0
1698923834794.767,19890.0
1698923834815.263,19885.0
1698923834835.7583,19885.0
1698923834856.2542,19879.0
1698923834876.7498,19878.0
1698923834897.2454,19878.0
1698923834917.7412,19880.0
1698923834938.2368,19882.0
1698923834958.7324,19880.0
1698923834979.228,19882.0
1698923834999.7236,19886.0
1698923835020.2192,19891.0
1698923835040.7148,19896.0
1698923835061.2107,19899.0
1698923835081.7063,19906.0
1698923835102.202,19907.0
1698923835122.6975,19901.0
1698923835143.193,19911.0
1698923835163.6887,19902.0
1698923835184.1846,19907.0
1698923835204.6802,19908.0
1698923835225.1758,19908.0
1698923835245.6714,19905.0
1698923835266.167,19908.0
1698923835286.6626,19912.0
1698923835307.1584,19911.0
1698923835327.654,19906.0
1698923835348.1497,19905.0
1698923835368.6453,19901.0
1698923835389.1409,19903.0
1698923835409.6365,19901.0
1698923835430.132,19893.0
1698923835450.628,19900.0
1698923835471.1235,19899.0
1698923835491.6191,19894.0
1698923835512.1147,19897.0
1698923835532.6104,19897.0
1698923835553.106,19894.0
1698923835573.6018,19894.0
1698923835594.0974,19893.0
1698923835614.593,19891.0
1698923835635.0886,19892.0
1698923835655.5842,19891.0
1698923835676.0798,19896.0
1698923835696.5757,19893.0
1698923835717.0713,19889.0
1698923835737.567,19896.0
1698923835758.0625,19893.0
1698923835778.558,19894.0
1698923835799.0537,19899.0
1698923835819.5493,19898.0
1698923835840.0452,19906.0
1698923835860.5408,19901.0
1698923835881.0364,19897.0
1698923835901.532,19891.0
1698923835922.0276,19893.0
1698923835942.5232,19897.0
1698923835963.019,19907.0
1698923835983.5146,19906.0
1698923836004.0105,19913.0
1698923836024.506,19913.0
1698923836045.0017,19910.0
1698923836065.497,19922.0
1698923836085.993,19941.0
1698923836106.4883,19946.0
1698923836126.984,19957.0
1698923836147.4795,19964.0
1698923836167.975,19988.0
1698923836188.471,20010.0
1698923836208.9666,20040.0
1698923836229.4624,20084.0
1698923836249.958,20133.0
1698923836270.4536,20180.0
1698923836290.9492,20226.0
1698923836311.4448,20251.0
1698923836331.9404,20260.0
1698923836352.4363,20262.0
1698923836372.932,20262.0
1698923836393.4275,20261.0
1698923836413.923,20271.0
1698923836434.4187,20284.0
1698923836454.9143,20284.0
1698923836475.4102,20297.0
1698923836495.9058,20304.0
1698923836516.4014,20312.0
1698923836536.897,20341.0
1698923836557.3926,20372.0
1698923836577.8882,20408.0
1698923836598.3838,20452.0
1698923836618.8796,20483.0
1698923836639.3752,20521.0
1698923836659.8708,20564.0
1698923836680.3665,20602.0
1698923836700.862,20637.0
1698923836721.3577,20670.0
1698923836741.8535,20701.0
1698923836762.349,20731.0
1698923836782.8447,20764.0
1698923836803.3403,20798.0
1698923836823.836,20834.0
1698923836844.3315,20861.0
1698923836864.8274,20890.0
1698923836885.323,20919.0
1698923836905.8186,20954.0
1698923836926.3142,20988.0
1698923836946.8098,21011.0
1698923836967.3054,21033.0
1698923836987.801,21053.0
1698923837008.2969,21079.0
1698923837028.7925,21100.0
1698923837049.288,21120.0
1698923837069.7837,21147.0
1698923837090.2793,21160.0
1698923837110.775,21178.0
1698923837131.2708,21182.0
1698923837151.7664,21196.0
1698923837172.262,21203.0
1698923837192.7576,21207.0
1698923837213.2532,21216.0
1698923837233.7488,21222.0
1698923837254.2446,21229.0
1698923837274.7402,21239.0
1698923837295.2358,21250.0
1698923837315.7314,21258.0
1698923837336.227,21275.0
1698923837356.723,21275.0
1698923837377.2185,21273.0
1698923837397.714,21284.0
1698923837418.2097,21291.0
1698923837438.705,21294.0
1698923837459.201,21317.0
1698923837479.6963,21328.0
1698923837500.192,21346.0
1698923837520.688,21355.0
1698923837541.1836,21363.0
1698923837561.6792,21375.0
1698923837582.1748,21385.0
1698923837602.6704,21398.0
1698923837623.166,21400.0
1698923837643.6616,21418.0
1698923837664.1577,21424.0
1698923837684.653,21430.0
1698923837705.1487,21442.0
1698923837725.6443,21451.0
1698923837746.14,21453.0
1698923837766.6355,21466.0
1698923837787.131,21471.0
1698923837807.627,21473.0
1698923837828.1226,21484.0
1698923837848.6182,21487.0
1698923837869.1138,21489.0
1698923837889.6094,21491.0
1698923837910.1052,21495.0
1698923837930.6008,21502.0
1698923837951.0964,21510.0
1698923837971.592,21516.0
1698923837992.0876,21522.0
1698923838012.5833,21526.0
1698923838033.0789,21535.0
1698923838053.5747,21547.0
1698923838074.0703,21544.0
1698923838094.566,21550.0
1698923838115.0615,21549.0
1698923838135.5571,21549.0
1698923838156.0527,21552.0
1698923838176.5486,21547.0
1698923838197.0442,21550.0
1698923838217.5398,21557.0
1698923838238.0354,21561.0
1698923838258.531,21558.0
1698923838279.0266,21561.0
1698923838299.5225,21569.0
1698923838320.018,21570.0
1698923838340.5137,21573.0
1698923838361.0093,21574.0
1698923838381.505,21573.0
1698923838402.0005,21577.0
1698923838422.496,21581.0
1698923838442.992,21585.0
1698923838463.4875,21589.0
1698923838483.9832,21589.0
1698923838504.4788,21595.0
1698923838524.9744,21597.0
1698923838545.47,21602.0
1698923838565.9658,21598.0
1698923838586.4614,21610.0
1698923838606.957,21614.0
1698923838627.4526,21617.0
1698923838647.9482,21614.0
1698923838668.4438,21613.0
1698923838688.9397,21615.0
1698923838709.4353,21621.0
1698923838729.931,21614.0
1698923838750.4265,21615.0
1698923838770.922,21618.0
1698923838791.4175,21620.0
1698923838811.913,21619.0
1698923838832.4092,21613.0
1698923838852.9048,21620.0
1698923838873.4004,21619.0
1698923838893.896,21617.0
1698923838914.3916,21623.0
1698923838934.8872,21628.0
1698923838955.383,21621.0
1698923838975.879,21618.0
1698923838996.3745,21616.0
1698923839016.87,21614.0
1698923839037.3655,21610.0
1698923839057.861,21619.0
1698923839078.357,21616.0
1698923839098.8523,21624.0
1698923839119.348,21627.0
1698923839139.8438,21630.0
1698923839160.3394,21633.0
1698923839180.835,21643.0
1698923839201.3306,21635.0
1698923839221.8264,21648.0
1698923839242.322,21637.0
1698923839262.8176,21641.0
1698923839283.3132,21642.0
1698923839303.8088,21645.0
1698923839324.3044,21643.0
1698923839344.8003,21645.0
1698923839365.296,21641.0
1698923839385.7915,21644.0
1698923839406.287,21646.0
1698923839426.7827,21646.0
1698923839447.2783,21648.0
1698923839467.7742,21650.0
1698923839488.2698,21653.0
1698923839508.7654,21650.0
1698923839529.261,21656.0
1698923839549.7566,21663.0
1698923839570.2522,21662.0
1698923839590.7478,21657.0
1698923839611.2437,21660.0
1698923839631.7393,21666.0
1698923839652.2349,21666.0
1698923839672.7305,21676.0
1698923839693.226,21678.0
1698923839713.7217,21670.0
1698923839734.2175,21669.0
1698923839754.7131,21677.0
1698923839775.2087,21674.0
1698923839795.7043,21678.0
1698923839816.2,21683.0
1698923839836.6956,21684.0
1698923839857.1914,21682.0
1698923839877.687,21684.0
1698923839898.1826,21681.0
1698923839918.6782,21682.0
1698923839939.1738,21686.0
1698923839959.6694,21682.0
1698923839980.165,21680.0
1698923840000.661,21676.0
1698923840021.1565,21677.0
1698923840041.652,21678.0
1698923840062.1477,21680.0
1698923840082.6433,21680.0
1698923840103.139,21677.0
1698923840123.6348,21683.0
1698923840144.1304,21672.0
1698923840164.626,21674.0
1698923840185.1216,21678.0
1698923840205.6172,21682.0
1698923840226.1128,21679.0
1698923840246.6086,21680.0
1698923840267.1042,21682.0
1698923840287.6,21681.0
1698923840308.0957,21677.0
1698923840328.591,21684.0
1698923840349.087,21686.0
1698923840369.5825,21691.0
1698923840390.078,21686.0
1698923840410.5735,21687.0
1698923840431.069,21687.0
1698923840451.565,21688.0
1698923840472.0603,21689.0
1698923840492.5562,21681.0
1698923840513.052,21685.0
1698923840533.5476,21684.0
1698923840554.0432,21679.0
1698923840574.5388,21689.0
1698923840595.0344,21679.0
1698923840615.53,21689.0
1698923840636.026,21686.0
1698923840656.5215,21691.0
1698923840677.017,21693.0
1698923840697.5127,21690.0
1698923840718.0083,21688.0
1698923840738.504,21690.0
1698923840758.9995,21694.0
1698923840779.4954,21693.0
1698923840799.991,21697.0
1698923840820.4866,21698.0
1698923840840.9822,21700.0
1698923840861.4778,21707.0
1698923840881.9734,21704.0
1698923840902.4692,21711.0
1698923840922.9648,21710.0
1698923840943.4604,21711.0
1698923840963.956,21711.0
1698923840984.4517,21714.0
1698923841004.9473,21708.0
1698923841025.4429,21704.0
1698923841045.9387,21701.0
1698923841066.4343,21707.0
1698923841086.93,21708.0
1698923841107.4255,21712.0
1698923841127.9211,21710.0
1698923841148.4167,21712.0
1698923841168.9126,21710.0
1698923841189.4082,21710.0
1698923841209.9038,21715.0
1698923841230.3994,21707.0
1698923841250.895,21710.0
1698923841271.3906,21712.0
1698923841291.8865,21712.0
1698923841312.382,21710.0
1698923841332.8777,21715.0
1698923841353.3733,21716.0
1698923841373.869,21720.0
1698923841394.3645,21724.0
1698923841414.86,21725.0
1698923841435.356,21724.0
1698923841455.8516,21724.0
1698923841476.3472,21729.0
1698923841496.8428,21722.0
1698923841517.3384,21726.0
1698923841537.834,21728.0
1698923841558.3298,21725.0
1698923841578.8254,21730.0
1698923841599.321,21726.0
1698923841619.817,21728.0
1698923841640.3125,21722.0
1698923841660.808,21733.0
1698923841681.3037,21725.0
1698923841701.7993,21730.0
1698923841722.295,21730.0
1698923841742.7903,21733.0
1698923841763.286,21735.0
1698923841783.7815,21738.0
1698923841804.277,21735.0
1698923841824.7732,21732.0
1698923841845.2688,21733.0
1698923841865.7644,21742.0
1698923841886.26,21738.0
1698923841906.7556,21745.0
1698923841927.2512,21746.0
1698923841947.747,21745.0
1698923841968.243,21748.0
1698923841988.7383,21746.0
1698923842009.234,21746.0
1698923842029.7295,21747.0
1698923842050.225,21754.0
1698923842070.721,21752.0
1698923842091.2166,21753.0
1698923842111.7122,21752.0
1698923842132.2078,21753.0
1698923842152.7034,21757.0
1698923842173.199,21762.0
1698923842193.6946,21759.0
1698923842214.1904,21757.0
1698923842234.686,21750.0
1698923842255.1816,21759.0
1698923842275.6772,21762.0
1698923842296.1729,21761.0
1698923842316.6685,21758.0
1698923842337.1643,21754.0
1698923842357.66,21764.0
1698923842378.1555,21760.0
1698923842398.6511,21766.0
1698923842419.1467,21776.0
1698923842439.6423,21764.0
1698923842460.1382,21767.0
1698923842480.6338,21768.0
1698923842501.1294,21766.0
1698923842521.625,21768.0
1698923842542.1206,21774.0
1698923842562.6162,21773.0
1698923842583.1118,21777.0
1698923842603.6077,21779.0
1698923842624.1033,21775.0
1698923842644.5989,21780.0
1698923842665.0945,21779.0
1698923842685.59,21780.0
1698923842706.0857,21786.0
1698923842726.5815,21783.0
1698923842747.0771,21790.0
1698923842767.5728,21786.0
1698923842788.0684,21788.0
1698923842808.564,21791.0
1698923842829.0596,21791.0
1698923842849.5554,21785.0
1698923842870.051,21790.0
1698923842890.5466,21792.0
1698923842911.0422,21794.0
1698923842931.5378,21796.0
1698923842952.0334,21801.0
1698923842972.529,21796.0
1698923842993.025,21803.0
