timestamp,ppg
1698672816.0105255,14315.0
1698672816.0309348,14314.0
1698672816.0513442,14313.0
1698672816.071754,14312.0
1698672816.092163,14317.0
1698672816.1125727,14316.0
1698672816.1329823,14319.0
1698672816.1533916,14324.0
1698672816.173801,14321.0
1698672816.1942108,14324.0
1698672816.21462,14280.0
1698672816.2350295,14316.0
1698672816.255439,14314.0
1698672816.2758484,14312.0
1698672816.296258,14315.0
1698672816.3166676,14319.0
1698672816.337077,14313.0
1698672816.3574862,14313.0
1698672816.3778958,14269.0
1698672816.3983054,14311.0
1698672816.4187148,14305.0
1698672816.4391246,14305.0
1698672816.4595337,14264.0
1698672816.479943,14303.0
1698672816.5003524,14303.0
1698672816.5207622,14307.0
1698672816.5411716,14309.0
1698672816.5615811,14309.0
1698672816.5819905,14317.0
1698672816.6023998,14323.0
1698672816.6228096,14335.0
1698672816.643219,14339.0
1698672816.6636283,14343.0
1698672816.684038,14353.0
1698672816.7044473,14360.0
1698672816.7248569,14360.0
1698672816.7452664,14365.0
1698672816.7656758,14368.0
1698672816.7860851,14374.0
1698672816.8064947,14375.0
1698672816.826904,14382.0
1698672816.8473136,14346.0
1698672816.8677232,14390.0
1698672816.8881326,14398.0
1698672816.908542,14402.0
1698672816.9289515,14408.0
1698672816.949361,14366.0
1698672816.9697704,14412.0
1698672816.99018,14417.0
1698672817.0105894,14422.0
1698672817.0309987,14418.0
1698672817.0514085,14426.0
1698672817.071818,14379.0
1698672817.0922272,14419.0
1698672817.1126368,14421.0
1698672817.133046,14421.0
1698672817.1534555,14423.0
1698672817.1738653,14423.0
1698672817.194275,14422.0
1698672817.214684,14423.0
1698672817.2350936,14422.0
1698672817.255503,14425.0
1698672817.2759125,14380.0
1698672817.296322,14427.0
1698672817.3167315,14418.0
1698672817.3371408,14421.0
1698672817.3575504,14421.0
1698672817.37796,14382.0
1698672817.3983693,14425.0
1698672817.418779,14424.0
1698672817.4391882,14425.0
1698672817.4595976,14425.0
1698672817.4800072,14421.0
1698672817.5004168,14414.0
1698672817.520826,14421.0
1698672817.5412357,14417.0
1698672817.561645,14418.0
1698672817.5820544,14417.0
1698672817.6024642,14381.0
1698672817.6228735,14419.0
1698672817.643283,14420.0
1698672817.6636925,14421.0
1698672817.6841018,14413.0
1698672817.7045116,14413.0
1698672817.724921,14414.0
1698672817.7453303,14404.0
1698672817.7657394,14410.0
1698672817.7861493,14405.0
1698672817.8065586,14398.0
1698672817.8269684,14402.0
1698672817.8473778,14399.0
1698672817.8677871,14397.0
1698672817.8881962,14395.0
1698672817.908606,14394.0
1698672817.9290156,14386.0
1698672817.949425,14390.0
1698672817.9698346,14384.0
1698672817.990244,14381.0
1698672818.0106533,14378.0
1698672818.031063,14370.0
1698672818.0514724,14356.0
1698672818.0718818,14357.0
1698672818.0922914,14348.0
1698672818.1127007,14357.0
1698672818.13311,14366.0
1698672818.1535199,14381.0
1698672818.1739292,14392.0
1698672818.1943386,14402.0
1698672818.2147481,14418.0
1698672818.2351577,14422.0
1698672818.255567,14438.0
1698672818.2759767,14445.0
1698672818.296386,14416.0
1698672818.3167953,14472.0
1698672818.337205,14479.0
1698672818.3576145,14495.0
1698672818.3780239,14510.0
1698672818.3984332,14522.0
1698672818.4188428,14489.0
1698672818.4392521,14547.0
1698672818.4596617,14515.0
1698672818.4800713,14573.0
1698672818.5004807,14589.0
1698672818.52089,14598.0
1698672818.5412996,14614.0
1698672818.561709,14621.0
1698672818.582119,14638.0
1698672818.602528,14650.0
1698672818.6229374,14667.0
1698672818.643347,14678.0
1698672818.6637564,14689.0
1698672818.684166,14708.0
1698672818.7045755,14716.0
1698672818.724985,14737.0
1698672818.7453942,14745.0
1698672818.7658038,14752.0
1698672818.7862134,14764.0
1698672818.8066227,14782.0
1698672818.8270323,14782.0
1698672818.8474417,14792.0
1698672818.867851,14762.0
1698672818.8882606,14816.0
1698672818.9086702,14829.0
1698672818.9290795,14837.0
1698672818.949489,14845.0
1698672818.9698985,14855.0
1698672818.990308,14865.0
1698672819.0107176,14875.0
1698672819.031127,14879.0
1698672819.0515363,14887.0
1698672819.071946,14898.0
1698672819.0923553,14907.0
1698672819.1127648,14911.0
1698672819.1331744,14927.0
1698672819.1535835,14929.0
1698672819.173993,14933.0
1698672819.1944027,14939.0
1698672819.214812,14947.0
1698672819.2352216,14955.0
1698672819.2556312,14960.0
1698672819.2760403,14924.0
1698672819.29645,14968.0
1698672819.3168595,14979.0
1698672819.337269,14986.0
1698672819.3576784,14950.0
1698672819.378088,15003.0
1698672819.3984973,15007.0
1698672819.4189067,14958.0
1698672819.4393165,15014.0
1698672819.4597259,14974.0
1698672819.4801352,15017.0
1698672819.500545,15022.0
1698672819.5209541,15030.0
1698672819.5413635,15030.0
1698672819.5617733,15039.0
1698672819.5821826,15043.0
1698672819.602592,15051.0
1698672819.6230018,15054.0
1698672819.643411,15052.0
1698672819.6638205,15060.0
1698672819.68423,15064.0
1698672819.7046394,15069.0
1698672819.7250488,15030.0
1698672819.7454586,15034.0
1698672819.765868,15085.0
1698672819.786277,15089.0
1698672819.8066869,15090.0
1698672819.8270962,15094.0
1698672819.8475056,15053.0
1698672819.8679152,15106.0
1698672819.8883247,15102.0
1698672819.9087338,15111.0
1698672819.9291437,15111.0
1698672819.949553,15116.0
1698672819.9699624,15123.0
1698672819.9903722,15122.0
1698672820.0107815,15124.0
1698672820.0311909,15129.0
1698672820.0516005,15085.0
1698672820.0720098,15135.0
1698672820.0924194,15128.0
1698672820.112829,15131.0
1698672820.1332383,15134.0
1698672820.1536477,15139.0
1698672820.1740572,15100.0
1698672820.1944666,15141.0
1698672820.2148762,15100.0
1698672820.2352858,15145.0
1698672820.255695,15152.0
1698672820.2761045,15108.0
1698672820.296514,15176.0
1698672820.3169236,15166.0
1698672820.337333,15118.0
1698672820.3577425,15168.0
1698672820.3781521,15171.0
1698672820.3985612,15172.0
1698672820.418971,15165.0
1698672820.4393804,15179.0
1698672820.4597898,15143.0
1698672820.4801993,15181.0
1698672820.5006087,15190.0
1698672820.521018,15186.0
1698672820.5414274,15145.0
1698672820.5618372,15190.0
1698672820.5822465,15193.0
1698672820.602656,15153.0
1698672820.6230655,15201.0
1698672820.643475,15206.0
1698672820.6638846,15207.0
1698672820.684294,15209.0
1698672820.7047033,15213.0
1698672820.7251127,15213.0
1698672820.7455225,15216.0
1698672820.7659318,15173.0
1698672820.7863412,15218.0
1698672820.8067508,15224.0
1698672820.8271601,15223.0
1698672820.8475695,15229.0
1698672820.8679793,15229.0
1698672820.8883889,15189.0
1698672820.908798,15237.0
1698672820.9292076,15238.0
1698672820.949617,15241.0
1698672820.9700265,15246.0
1698672820.990436,15250.0
1698672821.0108457,15246.0
1698672821.0312548,15252.0
1698672821.0516644,15262.0
1698672821.072074,15265.0
1698672821.0924833,15270.0
1698672821.1128929,15273.0
1698672821.1333022,15280.0
1698672821.1537116,15287.0
1698672821.1741211,15277.0
1698672821.1945307,15279.0
1698672821.21494,15279.0
1698672821.2353497,15276.0
1698672821.255759,15274.0
1698672821.2761683,15276.0
1698672821.296578,15230.0
1698672821.3169875,15277.0
1698672821.3373969,15277.0
1698672821.3578064,15278.0
1698672821.3782158,15276.0
1698672821.3986254,15273.0
1698672821.419035,15237.0
1698672821.4394443,15285.0
1698672821.4598536,15281.0
1698672821.4802632,15281.0
1698672821.5006726,15284.0
1698672821.5210824,15237.0
1698672821.5414917,15283.0
1698672821.561901,15286.0
1698672821.5823102,15279.0
1698672821.60272,15285.0
1698672821.6231296,15280.0
1698672821.643539,15279.0
1698672821.6639485,15283.0
1698672821.684358,15280.0
1698672821.704767,15281.0
1698672821.725177,15279.0
1698672821.7455864,15280.0
1698672821.7659957,15279.0
1698672821.7864053,15278.0
1698672821.8068147,15279.0
1698672821.827224,15235.0
1698672821.8476338,15272.0
1698672821.8680432,15271.0
1698672821.8884525,15275.0
1698672821.908862,15269.0
1698672821.9292715,15270.0
1698672821.949681,15267.0
1698672821.9700906,15269.0
1698672821.9905,15265.0
1698672822.0109093,15271.0
1698672822.031319,15267.0
1698672822.0517285,15265.0
1698672822.0721378,15272.0
1698672822.0925474,15270.0
1698672822.1129568,15267.0
1698672822.133366,15265.0
1698672822.153776,15275.0
1698672822.1741853,15230.0
1698672822.1945946,15271.0
1698672822.2150042,15273.0
1698672822.2354136,15276.0
1698672822.255823,15277.0
1698672822.276233,15277.0
1698672822.296642,15273.0
1698672822.3170514,15275.0
1698672822.337461,15278.0
1698672822.3578703,15231.0
1698672822.37828,15277.0
1698672822.3986897,15271.0
1698672822.4190989,15278.0
1698672822.4395082,15281.0
1698672822.4599175,15273.0
1698672822.4803274,15272.0
1698672822.5007367,15268.0
1698672822.5211463,15260.0
1698672822.5415556,15259.0
1698672822.561965,15247.0
1698672822.5823746,15234.0
1698672822.6027842,15219.0
1698672822.6231935,15213.0
1698672822.643603,15208.0
1698672822.6640124,15200.0
1698672822.684422,15201.0
1698672822.7048316,15199.0
1698672822.725241,15194.0
1698672822.7456503,15198.0
1698672822.7660599,15192.0
1698672822.7864692,15187.0
1698672822.8068788,15182.0
1698672822.8272884,15183.0
1698672822.8476977,15178.0
1698672822.868107,15133.0
1698672822.8885167,15168.0
1698672822.908926,15167.0
1698672822.9293356,15167.0
1698672822.9497452,15166.0
1698672822.9701543,15161.0
1698672822.9905639,15160.0
1698672823.0109735,15157.0
1698672823.031383,15150.0
1698672823.0517924,15153.0
1698672823.072202,15158.0
1698672823.092611,15159.0
1698672823.1130207,15153.0
1698672823.1334305,15147.0
1698672823.1538398,15103.0
1698672823.1742492,15144.0
1698672823.1946588,15143.0
1698672823.215068,15144.0
1698672823.2354774,15141.0
1698672823.2558873,15135.0
1698672823.2762966,15134.0
1698672823.296706,15130.0
1698672823.3171155,15120.0
1698672823.337525,15113.0
1698672823.3579345,15073.0
1698672823.378344,15110.0
1698672823.3987534,15063.0
1698672823.4191628,15102.0
1698672823.4395726,15102.0
1698672823.459982,15100.0
1698672823.4803913,15047.0
1698672823.5008008,15089.0
1698672823.5212102,15087.0
1698672823.5416195,15085.0
1698672823.5620291,15079.0
1698672823.5824387,15078.0
1698672823.6028478,15076.0
1698672823.6232576,15067.0
1698672823.643667,15064.0
1698672823.6640763,15066.0
1698672823.6844862,15062.0
1698672823.7048955,15060.0
1698672823.7253048,15058.0
1698672823.7457144,15054.0
1698672823.7661238,15054.0
1698672823.7865334,15043.0
1698672823.806943,15043.0
1698672823.8273523,15037.0
1698672823.8477616,15033.0
1698672823.8681712,15023.0
1698672823.8885806,15024.0
1698672823.9089901,15014.0
1698672823.9293997,15003.0
1698672823.949809,15002.0
1698672823.9702184,15001.0
1698672823.990628,14994.0
1698672824.0110376,14986.0
1698672824.031447,14985.0
1698672824.0518565,14988.0
1698672824.072266,14983.0
1698672824.0926752,14978.0
1698672824.113085,14971.0
1698672824.1334944,14967.0
1698672824.1539037,14960.0
1698672824.1743133,14962.0
1698672824.194723,14956.0
1698672824.215132,14955.0
1698672824.2355416,14955.0
1698672824.2559512,14950.0
1698672824.2763605,14943.0
1698672824.29677,14941.0
1698672824.3171794,14938.0
1698672824.337589,14933.0
1698672824.3579984,14932.0
1698672824.378408,14930.0
1698672824.3988173,14923.0
1698672824.419227,14919.0
1698672824.4396365,14915.0
1698672824.4600458,14910.0
1698672824.4804552,14906.0
1698672824.5008647,14901.0
1698672824.521274,14892.0
1698672824.5416837,14888.0
1698672824.5620933,14889.0
1698672824.5825026,14875.0
1698672824.6029122,14868.0
1698672824.6233215,14866.0
1698672824.6437309,14859.0
1698672824.6641407,14851.0
1698672824.68455,14844.0
1698672824.7049596,14842.0
1698672824.725369,14837.0
1698672824.7457783,14835.0
1698672824.766188,14829.0
1698672824.7865975,14828.0
1698672824.8070068,14821.0
1698672824.8274164,14822.0
1698672824.8478258,14821.0
1698672824.868235,14815.0
1698672824.8886447,14806.0
1698672824.9090543,14808.0
1698672824.9294636,14806.0
1698672824.949873,14804.0
1698672824.9702826,14802.0
1698672824.990692,14800.0
1698672825.0111015,14800.0
1698672825.031511,14754.0
1698672825.0519204,14790.0
1698672825.0723298,14789.0
1698672825.0927396,14793.0
1698672825.113149,14786.0
1698672825.1335583,14783.0
1698672825.1539679,14788.0
1698672825.1743772,14779.0
1698672825.1947865,14773.0
1698672825.2151964,14769.0
1698672825.2356057,14761.0
1698672825.256015,14762.0
1698672825.2764246,14756.0
1698672825.296834,14748.0
1698672825.3172436,14745.0
1698672825.3376532,14743.0
1698672825.3580625,14741.0
1698672825.3784719,14690.0
1698672825.3988812,14731.0
1698672825.419291,14730.0
1698672825.4397004,14722.0
1698672825.4601102,14720.0
1698672825.4805193,14716.0
1698672825.5009286,14722.0
1698672825.5213385,14719.0
1698672825.5417478,14671.0
1698672825.5621572,14717.0
1698672825.582567,14712.0
1698672825.602976,14708.0
1698672825.6233854,14709.0
1698672825.6437953,14704.0
1698672825.6642046,14704.0
1698672825.684614,14702.0
1698672825.7050235,14699.0
1698672825.7254329,14656.0
1698672825.7458422,14696.0
1698672825.766252,14690.0
1698672825.7866614,14691.0
1698672825.8070707,14686.0
1698672825.8274803,14685.0
1698672825.84789,14682.0
1698672825.8682992,14689.0
1698672825.8887088,14684.0
1698672825.9091182,14684.0
1698672825.9295275,14679.0
1698672825.949937,14636.0
1698672825.9703467,14676.0
1698672825.990756,14671.0
1698672826.0111656,14666.0
1698672826.031575,14662.0
1698672826.0519843,14663.0
1698672826.0723941,14657.0
1698672826.0928037,14652.0
1698672826.1132128,14651.0
1698672826.1336224,14645.0
1698672826.1540315,14643.0
1698672826.1744413,14640.0
1698672826.194851,14599.0
1698672826.2152605,14638.0
1698672826.2356696,14626.0
1698672826.2560792,14629.0
1698672826.2764883,14629.0
1698672826.2968981,14624.0
1698672826.3173077,14578.0
1698672826.337717,14619.0
1698672826.3581264,14622.0
1698672826.378536,14621.0
1698672826.3989456,14615.0
1698672826.419355,14611.0
1698672826.4397645,14610.0
1698672826.4601738,14608.0
1698672826.4805832,14608.0
1698672826.500993,14604.0
1698672826.5214024,14600.0
1698672826.5418117,14604.0
1698672826.5622213,14558.0
1698672826.5826306,14604.0
1698672826.60304,14601.0
1698672826.6234498,14599.0
1698672826.6438591,14604.0
1698672826.6642685,14600.0
1698672826.684678,14595.0
1698672826.7050874,14594.0
1698672826.725497,14583.0
1698672826.7459066,14585.0
1698672826.766316,14539.0
1698672826.786725,14578.0
1698672826.8071349,14573.0
1698672826.8275445,14573.0
1698672826.847954,14564.0
1698672826.8683634,14565.0
1698672826.8887727,14515.0
1698672826.9091818,14557.0
1698672826.9295917,14553.0
1698672826.9500012,14549.0
1698672826.9704106,14552.0
1698672826.9908202,14546.0
1698672827.0112295,14547.0
1698672827.0316389,14542.0
1698672827.0520487,14546.0
1698672827.072458,14548.0
1698672827.0928674,14543.0
1698672827.113277,14541.0
1698672827.1336863,14543.0
1698672827.154096,14540.0
1698672827.1745055,14539.0
1698672827.1949148,14534.0
1698672827.2153242,14492.0
1698672827.2357337,14531.0
1698672827.256143,14529.0
1698672827.2765527,14531.0
1698672827.2969623,14529.0
1698672827.3173716,14526.0
1698672827.337781,14482.0
1698672827.3581905,14530.0
1698672827.3786001,14526.0
1698672827.3990095,14525.0
1698672827.419419,14522.0
1698672827.4398284,14523.0
1698672827.4602377,14516.0
1698672827.4806478,14517.0
1698672827.501057,14479.0
1698672827.5214663,14514.0
1698672827.5418756,14513.0
1698672827.5622852,14514.0
1698672827.5826945,14470.0
1698672827.6031044,14508.0
1698672827.6235137,14511.0
1698672827.643923,14509.0
1698672827.6643326,14508.0
1698672827.684742,14498.0
1698672827.7051516,14455.0
1698672827.7255611,14491.0
1698672827.7459705,14488.0
1698672827.7663798,14485.0
1698672827.7867894,14483.0
1698672827.807199,14480.0
1698672827.8276083,14440.0
1698672827.848018,14483.0
1698672827.8684273,14436.0
1698672827.8888369,14475.0
1698672827.9092462,14477.0
1698672827.9296558,14476.0
1698672827.9500651,14477.0
1698672827.9704747,14474.0
1698672827.990884,14429.0
1698672828.0112936,14472.0
1698672828.0317032,14470.0
1698672828.0521123,14470.0
1698672828.072522,14471.0
1698672828.0929315,14473.0
1698672828.1133409,14466.0
1698672828.1337504,14462.0
1698672828.15416,14460.0
1698672828.1745691,14459.0
1698672828.1949787,14464.0
1698672828.2153883,14458.0
1698672828.2357976,14413.0
1698672828.2562072,14411.0
1698672828.2766168,14449.0
1698672828.297026,14456.0
1698672828.3174355,14447.0
1698672828.337845,14445.0
1698672828.3582547,14441.0
1698672828.378664,14394.0
1698672828.3990736,14441.0
1698672828.419483,14438.0
1698672828.4398923,14438.0
1698672828.460302,14431.0
1698672828.4807115,14429.0
1698672828.5011208,14429.0
1698672828.5215306,14424.0
1698672828.5419397,14424.0
1698672828.562349,14378.0
1698672828.582759,14420.0
1698672828.6031682,14417.0
1698672828.6235776,14420.0
1698672828.6439872,14413.0
1698672828.6643965,14409.0
1698672828.684806,14407.0
1698672828.7052157,14407.0
1698672828.725625,14405.0
1698672828.7460344,14401.0
1698672828.7664437,14403.0
1698672828.7868536,14396.0
1698672828.807263,14401.0
1698672828.8276725,14398.0
1698672828.8480818,14396.0
1698672828.8684912,14394.0
1698672828.888901,14389.0
1698672828.9093103,14382.0
1698672828.9297194,14381.0
1698672828.950129,14376.0
1698672828.9705386,14371.0
1698672828.990948,14364.0
1698672829.0113578,14360.0
1698672829.0317671,14360.0
1698672829.0521765,14353.0
1698672829.0725858,14351.0
1698672829.0929954,14358.0
1698672829.113405,14357.0
1698672829.1338143,14351.0
1698672829.1542242,14306.0
1698672829.1746333,14351.0
1698672829.1950426,14351.0
1698672829.2154524,14349.0
1698672829.2358618,14304.0
1698672829.2562711,14341.0
1698672829.276681,14342.0
1698672829.29709,14336.0
1698672829.3174994,14336.0
1698672829.3379092,14335.0
1698672829.3583186,14333.0
1698672829.378728,14335.0
1698672829.3991377,14325.0
1698672829.4195468,14288.0
1698672829.4399562,14325.0
1698672829.460366,14280.0
1698672829.4807754,14288.0
1698672829.5011847,14323.0
1698672829.5215943,14315.0
1698672829.5420039,14274.0
1698672829.562413,14314.0
1698672829.5828228,14311.0
1698672829.6032321,14308.0
1698672829.6236415,14309.0
1698672829.644051,14306.0
1698672829.6644607,14305.0
1698672829.68487,14257.0
1698672829.7052796,14300.0
1698672829.725689,14297.0
1698672829.7460983,14251.0
1698672829.766508,14288.0
1698672829.7869174,14247.0
1698672829.8073268,14282.0
1698672829.8277364,14279.0
1698672829.8481457,14278.0
1698672829.8685553,14274.0
1698672829.888965,14269.0
1698672829.9093745,14270.0
1698672829.9297836,14270.0
1698672829.9501932,14267.0
1698672829.9706023,14263.0
1698672829.991012,14262.0
1698672830.0114217,14260.0
1698672830.031831,14257.0
1698672830.0522404,14251.0
1698672830.07265,14251.0
1698672830.0930595,14250.0
1698672830.113469,14249.0
1698672830.1338785,14240.0
1698672830.1542878,14205.0
1698672830.1746972,14204.0
1698672830.195107,14237.0
1698672830.2155163,14240.0
1698672830.2359257,14234.0
1698672830.2563353,14236.0
1698672830.2767446,14234.0
1698672830.297154,14231.0
1698672830.3175638,14189.0
1698672830.337973,14228.0
1698672830.3583825,14223.0
1698672830.378792,14224.0
1698672830.3992014,14220.0
1698672830.419611,14221.0
1698672830.4400206,14220.0
1698672830.46043,14215.0
1698672830.4808393,14168.0
1698672830.5012488,14201.0
1698672830.5216584,14201.0
1698672830.542068,14196.0
1698672830.5624774,14195.0
1698672830.5828867,14192.0
1698672830.6032958,14187.0
1698672830.6237056,14182.0
1698672830.6441152,14182.0
1698672830.6645248,14173.0
1698672830.6849341,14173.0
1698672830.7053435,14128.0
1698672830.7257528,14173.0
1698672830.7461627,14163.0
1698672830.766572,14160.0
1698672830.7869813,14155.0
1698672830.807391,14153.0
1698672830.8278003,14150.0
1698672830.8482099,14147.0
1698672830.8686194,14147.0
1698672830.8890288,14141.0
1698672830.9094381,14140.0
1698672830.9298477,14132.0
1698672830.950257,14091.0
1698672830.9706666,14124.0
1698672830.9910762,14080.0
1698672831.0114856,14121.0
1698672831.031895,14118.0
1698672831.0523045,14117.0
1698672831.072714,14074.0
1698672831.0931234,14115.0
1698672831.113533,14109.0
1698672831.1339424,14110.0
1698672831.1543517,14104.0
1698672831.1747618,14062.0
1698672831.1951709,14095.0
1698672831.2155802,14096.0
1698672831.2359896,14089.0
1698672831.2563992,14092.0
1698672831.2768085,14086.0
1698672831.2972186,14075.0
1698672831.3176277,14075.0
1698672831.338037,14072.0
1698672831.3584464,14070.0
1698672831.378856,14060.0
1698672831.3992655,14061.0
1698672831.419675,14060.0
1698672831.4400845,14056.0
1698672831.4604938,14047.0
1698672831.4809034,14003.0
1698672831.501313,14047.0
1698672831.5217223,14035.0
1698672831.542132,14034.0
1698672831.5625412,14030.0
1698672831.5829506,14035.0
1698672831.6033602,14028.0
1698672831.6237698,14024.0
1698672831.644179,14020.0
1698672831.6645887,14018.0
1698672831.684998,14023.0
1698672831.7054076,14017.0
1698672831.7258172,14013.0
1698672831.7462265,14013.0
1698672831.766636,14008.0
1698672831.7870455,14005.0
1698672831.8074548,14006.0
1698672831.8278644,13960.0
1698672831.848274,14002.0
1698672831.868683,13998.0
1698672831.8890927,13995.0
1698672831.9095023,13985.0
1698672831.9299116,13987.0
1698672831.9503212,13985.0
1698672831.9707308,13978.0
1698672831.99114,13975.0
1698672832.0115495,13969.0
1698672832.031959,13969.0
1698672832.0523689,13968.0
1698672832.072778,13960.0
1698672832.0931876,13959.0
1698672832.113597,13960.0
1698672832.1340063,13911.0
1698672832.154416,13952.0
1698672832.1748254,13906.0
1698672832.1952348,13938.0
1698672832.2156444,13935.0
1698672832.2360537,13933.0
1698672832.2564633,13933.0
1698672832.2768729,13892.0
1698672832.2972822,13926.0
1698672832.3176916,13923.0
1698672832.3381011,13923.0
1698672832.3585105,13919.0
1698672832.37892,13915.0
1698672832.3993297,13912.0
1698672832.419739,13906.0
1698672832.4401484,13867.0
1698672832.4605582,13903.0
1698672832.4809675,13858.0
1698672832.5013769,13900.0
1698672832.5217865,13896.0
1698672832.5421958,13887.0
1698672832.5626051,13889.0
1698672832.583015,13883.0
1698672832.6034243,13875.0
1698672832.6238334,13868.0
1698672832.6442432,13867.0
1698672832.6646526,13859.0
1698672832.685062,13849.0
1698672832.7054718,13845.0
1698672832.725881,13841.0
1698672832.7462902,13833.0
1698672832.7667,13829.0
1698672832.7871094,13820.0
1698672832.807519,13811.0
1698672832.8279285,13804.0
1698672832.848338,13806.0
1698672832.8687472,13750.0
1698672832.8891568,13789.0
1698672832.9095664,13746.0
1698672832.9299757,13774.0
1698672832.9503853,13780.0
1698672832.970795,13772.0
1698672832.991204,13762.0
1698672833.0116136,13763.0
1698672833.0320232,13762.0
1698672833.0524325,13754.0
1698672833.0728421,13752.0
1698672833.0932517,13755.0
1698672833.1136608,13745.0
1698672833.1340706,13744.0
1698672833.15448,13738.0
1698672833.1748893,13738.0
1698672833.195299,13735.0
1698672833.2157085,13734.0
1698672833.2361178,13733.0
1698672833.2565272,13730.0
1698672833.2769368,13722.0
1698672833.297346,13716.0
1698672833.3177557,13717.0
1698672833.338165,13710.0
1698672833.3585746,13705.0
1698672833.378984,13695.0
1698672833.3993936,13688.0
1698672833.419803,13682.0
1698672833.4402125,13674.0
1698672833.460622,13666.0
1698672833.4810314,13661.0
1698672833.501441,13653.0
1698672833.5218503,13652.0
1698672833.5422597,13603.0
1698672833.5626695,13632.0
1698672833.5830789,13624.0
1698672833.6034882,13622.0
1698672833.6238978,13612.0
1698672833.6443071,13612.0
1698672833.6647165,13605.0
1698672833.6851263,13600.0
1698672833.7055357,13592.0
1698672833.725945,13583.0
1698672833.7463546,13582.0
1698672833.766764,13576.0
1698672833.7871735,13570.0
1698672833.807583,13563.0
1698672833.8279924,13559.0
1698672833.848402,13560.0
1698672833.8688114,13548.0
1698672833.889221,13541.0
1698672833.9096303,13537.0
1698672833.93004,13534.0
1698672833.9504492,13493.0
1698672833.9708586,13523.0
1698672833.9912682,13521.0
1698672834.0116775,13518.0
1698672834.032087,13512.0
1698672834.0524967,13510.0
1698672834.072906,13504.0
1698672834.0933154,13498.0
1698672834.1137252,13494.0
1698672834.1341345,13447.0
1698672834.1545439,13476.0
1698672834.1749535,13468.0
1698672834.1953628,13461.0
1698672834.2157724,13455.0
1698672834.236182,13446.0
1698672834.2565913,13440.0
1698672834.2770007,13432.0
1698672834.2974102,13425.0
1698672834.3178196,13420.0
1698672834.3382292,13410.0
1698672834.358639,13405.0
1698672834.379048,13393.0
1698672834.3994575,13347.0
1698672834.419867,13383.0
1698672834.4402766,13379.0
1698672834.460686,13368.0
1698672834.4810958,13368.0
1698672834.501505,13359.0
1698672834.5219142,13353.0
1698672834.542324,13349.0
1698672834.5627334,13343.0
1698672834.5831428,13330.0
1698672834.6035523,13323.0
1698672834.6239617,13320.0
1698672834.644371,13314.0
1698672834.6647809,13307.0
1698672834.6851902,13301.0
1698672834.7055995,13290.0
1698672834.7260091,13287.0
1698672834.7464185,13279.0
1698672834.7668278,13272.0
1698672834.7872376,13270.0
1698672834.807647,13256.0
1698672834.8280563,13252.0
1698672834.848466,13243.0
1698672834.8688755,13241.0
1698672834.8892848,13237.0
1698672834.9096944,13225.0
1698672834.9301038,13217.0
1698672834.9505131,13208.0
1698672834.9709227,13200.0
1698672834.9913325,13197.0
1698672835.0117416,13185.0
1698672835.0321512,13178.0
1698672835.0525603,13175.0
1698672835.07297,13162.0
1698672835.0933797,13157.0
1698672835.113789,13151.0
1698672835.1341984,13145.0
1698672835.154608,13136.0
1698672835.175017,13130.0
1698672835.195427,13122.0
1698672835.2158365,13120.0
1698672835.2362459,13112.0
1698672835.2566552,13106.0
1698672835.2770648,13094.0
1698672835.2974741,13052.0
1698672835.3178837,13081.0
1698672835.3382933,13081.0
1698672835.3587027,13075.0
1698672835.379112,13063.0
1698672835.3995216,13027.0
1698672835.4199312,13056.0
1698672835.4403405,13011.0
1698672835.46075,13041.0
1698672835.4811594,13035.0
1698672835.5015688,13033.0
1698672835.5219786,12984.0
1698672835.542388,13022.0
1698672835.5627973,13020.0
1698672835.583207,13011.0
1698672835.6036162,13009.0
1698672835.6240258,12966.0
1698672835.6444354,13002.0
1698672835.6648448,12995.0
1698672835.685254,12986.0
1698672835.7056637,12979.0
1698672835.726073,12965.0
1698672835.7464828,12959.0
1698672835.7668922,12948.0
1698672835.7873015,12936.0
1698672835.807711,12930.0
1698672835.8281205,12919.0
1698672835.84853,12916.0
1698672835.8689396,12906.0
1698672835.889349,12903.0
1698672835.9097583,12896.0
1698672835.9301674,12851.0
1698672835.9505775,12886.0
1698672835.9709868,12875.0
1698672835.9913962,12876.0
1698672836.0118058,12874.0
1698672836.032215,12864.0
1698672836.0526245,12862.0
1698672836.0730343,12860.0
1698672836.0934436,12851.0
1698672836.113853,12851.0
1698672836.1342626,12849.0
1698672836.1546721,12840.0
1698672836.1750815,12832.0
1698672836.195491,12833.0
1698672836.2159004,12830.0
1698672836.2363098,12830.0
1698672836.2567194,12818.0
1698672836.277129,12819.0
1698672836.2975383,12812.0
1698672836.3179479,12813.0
1698672836.3383572,12811.0
1698672836.3587666,12803.0
1698672836.3791761,12801.0
1698672836.3995857,12803.0
1698672836.419995,12797.0
1698672836.4404044,12789.0
1698672836.460814,12787.0
1698672836.4812233,12738.0
1698672836.5016332,12770.0
1698672836.5220425,12761.0
1698672836.5424519,12754.0
1698672836.562861,12746.0
1698672836.5832708,12736.0
1698672836.6036804,12730.0
1698672836.62409,12727.0
1698672836.6444993,12721.0
1698672836.6649086,12720.0
1698672836.6853182,12714.0
1698672836.7057276,12710.0
1698672836.7261372,12668.0
1698672836.7465467,12696.0
1698672836.766956,12692.0
1698672836.7873654,12688.0
1698672836.807775,12689.0
1698672836.8281846,12687.0
1698672836.848594,12678.0
1698672836.8690035,12674.0
1698672836.8894129,12672.0
1698672836.9098225,12665.0
1698672836.930232,12619.0
1698672836.9506414,12658.0
1698672836.9710507,12650.0
1698672836.9914603,12649.0
1698672837.0118697,12645.0
1698672837.032279,12642.0
1698672837.0526888,12636.0
1698672837.073098,12629.0
1698672837.0935075,12632.0
1698672837.1139169,12624.0
1698672837.1343265,12623.0
1698672837.154736,12617.0
1698672837.1751456,12616.0
1698672837.195555,12610.0
1698672837.2159643,12600.0
1698672837.2363737,12557.0
1698672837.2567835,12587.0
1698672837.2771928,12582.0
1698672837.2976022,12573.0
1698672837.3180118,12568.0
1698672837.338421,12568.0
1698672837.3588305,12513.0
1698672837.3792403,12555.0
1698672837.3996496,12546.0
1698672837.420059,12546.0
1698672837.4404685,12541.0
1698672837.460878,12538.0
1698672837.4812875,12532.0
1698672837.501697,12530.0
1698672837.5221064,12525.0
1698672837.5425162,12524.0
1698672837.5629253,12519.0
1698672837.583335,12514.0
1698672837.6037443,12509.0
1698672837.6241539,12498.0
1698672837.6445632,12502.0
1698672837.6649728,12500.0
1698672837.6853821,12460.0
1698672837.7057915,12488.0
1698672837.726201,12491.0
1698672837.7466106,12485.0
1698672837.76702,12483.0
1698672837.7874293,12485.0
1698672837.8078392,12448.0
1698672837.8282483,12481.0
1698672837.8486578,12482.0
1698672837.8690674,12484.0
1698672837.8894768,12481.0
1698672837.9098864,12482.0
1698672837.930296,12480.0
1698672837.950705,12472.0
1698672837.9711146,12476.0
1698672837.9915242,12465.0
1698672838.0119336,12464.0
1698672838.0323431,12454.0
1698672838.0527527,12446.0
1698672838.073162,12448.0
1698672838.0935714,12408.0
1698672838.113981,12437.0
1698672838.1343906,12395.0
1698672838.1548,12429.0
1698672838.1752098,12428.0
1698672838.1956189,12428.0
1698672838.2160282,12430.0
1698672838.236438,12423.0
1698672838.2568474,12429.0
1698672838.2772567,12388.0
1698672838.2976665,12419.0
1698672838.3180757,12386.0
1698672838.338485,12416.0
1698672838.3588948,12413.0
1698672838.3793042,12419.0
1698672838.3997135,12413.0
1698672838.420123,12414.0
1698672838.4405324,12413.0
1698672838.4609418,12407.0
1698672838.4813516,12415.0
1698672838.501761,12405.0
1698672838.5221703,12407.0
1698672838.54258,12408.0
1698672838.5629895,12407.0
1698672838.5833988,12405.0
1698672838.6038084,12403.0
1698672838.6242177,12404.0
1698672838.644627,12401.0
1698672838.6650367,12405.0
1698672838.6854463,12400.0
1698672838.7058556,12398.0
1698672838.7262652,12359.0
1698672838.7466745,12395.0
1698672838.767084,12392.0
1698672838.7874937,12387.0
1698672838.807903,12379.0
1698672838.8283124,12342.0
1698672838.848722,12376.0
1698672838.869131,12372.0
1698672838.889541,12330.0
1698672838.9099505,12367.0
1698672838.93036,12365.0
1698672838.9507692,12365.0
1698672838.9711788,12360.0
1698672838.9915884,12366.0
1698672839.0119977,12361.0
1698672839.0324073,12364.0
1698672839.0528169,12328.0
1698672839.073226,12363.0
1698672839.0936356,12359.0
1698672839.1140451,12358.0
1698672839.1344545,12357.0
1698672839.154864,12354.0
1698672839.1752734,12315.0
1698672839.1956828,12353.0
1698672839.2160923,12315.0
1698672839.236502,12350.0
1698672839.2569113,12316.0
1698672839.2773209,12350.0
1698672839.2977302,12344.0
1698672839.3181398,12345.0
1698672839.3385494,12347.0
1698672839.3589587,12351.0
1698672839.379368,12352.0
1698672839.3997777,12351.0
1698672839.420187,12347.0
1698672839.4405966,12355.0
1698672839.4610062,12350.0
1698672839.4814155,12350.0
1698672839.5018249,12350.0
1698672839.5222344,12347.0
1698672839.542644,12344.0
1698672839.5630536,12340.0
1698672839.583463,12339.0
1698672839.6038723,12333.0
1698672839.6242814,12329.0
1698672839.6446915,12332.0
1698672839.6651008,12331.0
1698672839.6855104,12324.0
1698672839.7059197,12325.0
1698672839.726329,12321.0
1698672839.7467382,12321.0
1698672839.7671483,12323.0
1698672839.7875576,12315.0
1698672839.807967,12319.0
1698672839.8283765,12312.0
1698672839.8487859,12320.0
1698672839.8691955,12278.0
1698672839.889605,12317.0
1698672839.9100144,12314.0
1698672839.9304237,12282.0
1698672839.9508333,12316.0
1698672839.971243,12323.0
1698672839.9916523,12323.0
1698672840.0120618,12329.0
1698672840.0324712,12321.0
1698672840.0528805,12330.0
1698672840.07329,12333.0
1698672840.0936997,12305.0
1698672840.114109,12346.0
1698672840.1345186,12315.0
1698672840.154928,12352.0
1698672840.1753373,12358.0
1698672840.1957471,12364.0
1698672840.2161565,12372.0
1698672840.2365658,12376.0
1698672840.2569752,12377.0
1698672840.2773848,12385.0
1698672840.2977943,12393.0
1698672840.3182042,12393.0
1698672840.3386133,12401.0
1698672840.3590226,12408.0
1698672840.379432,12416.0
1698672840.3998415,12426.0
1698672840.4202511,12432.0
1698672840.4406607,12449.0
1698672840.46107,12461.0
1698672840.4814794,12470.0
1698672840.501889,12489.0
1698672840.5222986,12496.0
1698672840.542708,12508.0
1698672840.5631175,12520.0
1698672840.5835268,12525.0
1698672840.6039362,12536.0
1698672840.624346,12547.0
1698672840.6447554,12524.0
1698672840.6651647,12579.0
1698672840.6855743,12588.0
1698672840.7059836,12563.0
1698672840.726393,12614.0
1698672840.7468028,12631.0
1698672840.7672122,12647.0
1698672840.7876215,12665.0
1698672840.808031,12691.0
1698672840.8284404,12711.0
1698672840.84885,12731.0
1698672840.8692596,12751.0
1698672840.889669,12777.0
1698672840.9100783,12804.0
1698672840.9304879,12825.0
1698672840.9508977,12856.0
1698672840.9713068,12870.0
1698672840.9917164,12886.0
1698672841.0121255,12903.0
1698672841.032535,12929.0
1698672841.0529447,12941.0
1698672841.0733542,12953.0
1698672841.0937636,12971.0
1698672841.1141732,12986.0
1698672841.1345825,12996.0
1698672841.1549919,13008.0
1698672841.1754017,13015.0
1698672841.195811,13027.0
1698672841.2162204,13040.0
1698672841.23663,13044.0
1698672841.2570393,13052.0
1698672841.277449,13068.0
1698672841.2978585,13077.0
1698672841.3182678,13091.0
1698672841.3386772,13110.0
1698672841.359087,13128.0
1698672841.379496,13146.0
1698672841.3999057,13125.0
1698672841.4203153,13175.0
1698672841.4407246,13185.0
1698672841.461134,13199.0
1698672841.4815438,13221.0
1698672841.5019531,13250.0
1698672841.5223622,13276.0
1698672841.542772,13302.0
1698672841.5631814,13339.0
1698672841.5835907,13371.0
1698672841.6040006,13402.0
1698672841.62441,13437.0
1698672841.644819,13426.0
1698672841.6652288,13498.0
1698672841.6856382,13527.0
1698672841.7060475,13548.0
1698672841.7264574,13570.0
1698672841.7468667,13593.0
1698672841.7672758,13613.0
1698672841.7876856,13634.0
1698672841.808095,13656.0
1698672841.8285046,13675.0
1698672841.8489141,13691.0
1698672841.8693235,13707.0
1698672841.8897328,13726.0
1698672841.9101424,13747.0
1698672841.930552,13754.0
1698672841.9509614,13780.0
1698672841.971371,13791.0
1698672841.9917805,13804.0
1698672842.0121896,13819.0
1698672842.0325992,13830.0
1698672842.0530088,13846.0
1698672842.0734181,13855.0
1698672842.0938277,13874.0
1698672842.114237,13878.0
1698672842.1346464,13894.0
1698672842.1550562,13906.0
1698672842.1754656,13882.0
1698672842.195875,13940.0
1698672842.2162845,13957.0
1698672842.2366939,13979.0
1698672842.2571034,13995.0
1698672842.277513,14009.0
1698672842.2979224,14032.0
1698672842.3183317,14050.0
1698672842.3387413,14077.0
1698672842.359151,14092.0
1698672842.3795602,14105.0
1698672842.3999696,14126.0
1698672842.4203792,14144.0
1698672842.4407885,14161.0
1698672842.461198,14142.0
1698672842.4816077,14193.0
1698672842.502017,14208.0
1698672842.5224266,14180.0
1698672842.542836,14235.0
1698672842.5632453,14251.0
1698672842.583655,14257.0
1698672842.6040645,14265.0
1698672842.624474,14280.0
1698672842.6448834,14280.0
1698672842.6652927,14288.0
1698672842.6857023,14292.0
1698672842.706112,14302.0
1698672842.7265213,14309.0
1698672842.7469308,14311.0
1698672842.7673402,14313.0
1698672842.7877495,14316.0
1698672842.808159,14276.0
1698672842.8285687,14319.0
1698672842.848978,14328.0
1698672842.8693876,14324.0
1698672842.889797,14327.0
1698672842.9102063,14329.0
1698672842.930616,14330.0
1698672842.9510255,14292.0
1698672842.9714348,14331.0
1698672842.9918442,14329.0
1698672843.012254,14334.0
1698672843.032663,14330.0
1698672843.0530727,14334.0
1698672843.0734823,14336.0
1698672843.0938916,14342.0
1698672843.114301,14344.0
1698672843.1347108,14342.0
1698672843.1551201,14311.0
1698672843.1755295,14354.0
1698672843.195939,14358.0
1698672843.2163484,14319.0
1698672843.236758,14364.0
1698672843.2571676,14374.0
1698672843.277577,14379.0
1698672843.2979863,14384.0
1698672843.3183959,14396.0
1698672843.3388054,14403.0
1698672843.3592148,14412.0
1698672843.3796246,14429.0
1698672843.4000337,14437.0
1698672843.420443,14450.0
1698672843.4408524,14462.0
1698672843.4612622,14475.0
1698672843.4816716,14485.0
1698672843.5020812,14490.0
1698672843.5224905,14463.0
1698672843.5428998,14513.0
1698672843.5633097,14523.0
1698672843.583719,14533.0
1698672843.6041284,14550.0
1698672843.624538,14555.0
1698672843.6449473,14568.0
1698672843.6653569,14576.0
1698672843.6857665,14590.0
1698672843.7061758,14601.0
1698672843.7265851,14608.0
1698672843.7469947,14625.0
1698672843.767404,14637.0
1698672843.7878137,14652.0
1698672843.8082232,14664.0
1698672843.8286326,14675.0
1698672843.849042,14690.0
1698672843.8694515,14690.0
1698672843.889861,14708.0
1698672843.9102705,14717.0
1698672843.93068,14738.0
1698672843.9510894,14753.0
1698672843.9714987,14763.0
1698672843.9919086,14775.0
1698672844.0123181,14789.0
1698672844.0327272,14754.0
1698672844.0531368,14804.0
1698672844.073546,14810.0
1698672844.0939555,14810.0
1698672844.1143653,14815.0
1698672844.134775,14813.0
1698672844.155184,14808.0
1698672844.1755936,14798.0
1698672844.196003,14795.0
1698672844.2164125,14795.0
1698672844.2368221,14796.0
1698672844.2572315,14795.0
1698672844.2776408,14793.0
1698672844.2980504,14801.0
1698672844.31846,14800.0
1698672844.3388693,14742.0
1698672844.359279,14776.0
1698672844.3796883,14772.0
1698672844.4000976,14775.0
1698672844.4205072,14778.0
1698672844.4409168,14770.0
1698672844.4613261,14739.0
1698672844.4817357,14741.0
1698672844.502145,14788.0
1698672844.5225544,14794.0
1698672844.5429642,14793.0
1698672844.5633736,14808.0
1698672844.583783,14808.0
1698672844.6041925,14820.0
1698672844.6246018,14825.0
1698672844.6450117,14824.0
1698672844.665421,14826.0
1698672844.6858304,14827.0
1698672844.7062395,14824.0
1698672844.7266493,14826.0
1698672844.7470586,14834.0
1698672844.7674685,14830.0
1698672844.7878778,14835.0
1698672844.8082871,14834.0
1698672844.8286963,14827.0
1698672844.849106,14826.0
1698672844.8695157,14831.0
1698672844.889925,14825.0
1698672844.9103346,14826.0
1698672844.930744,14822.0
1698672844.9511533,14824.0
1698672844.971563,14821.0
1698672844.9919724,14818.0
1698672845.0123818,14819.0
1698672845.0327914,14777.0
1698672845.0532007,14813.0
1698672845.07361,14811.0
1698672845.09402,14818.0
1698672845.1144292,14821.0
1698672845.1348386,14832.0
1698672845.1552482,14833.0
1698672845.1756577,14839.0
1698672845.196067,14853.0
1698672845.2164767,14860.0
1698672845.236886,14866.0
1698672845.2572954,14869.0
1698672845.2777047,14874.0
1698672845.2981145,14876.0
1698672845.318524,14882.0
1698672845.338933,14886.0
1698672845.3593428,14891.0
1698672845.3797522,14893.0
1698672845.4001615,14908.0
1698672845.4205713,14918.0
1698672845.4409807,14926.0
1698672845.4613898,14937.0
1698672845.4817996,14938.0
1698672845.502209,14945.0
1698672845.522619,14951.0
1698672845.543028,14951.0
1698672845.5634375,14951.0
1698672845.5838468,14959.0
1698672845.6042564,14968.0
1698672845.624666,14971.0
1698672845.6450753,14973.0
1698672845.665485,14980.0
1698672845.6858943,14986.0
1698672845.7063036,14987.0
1698672845.7267134,14996.0
1698672845.7471228,15003.0
1698672845.767532,15005.0
1698672845.7879417,15009.0
1698672845.808351,15014.0
1698672845.8287604,15015.0
1698672845.8491702,14982.0
1698672845.8695796,15025.0
1698672845.889989,15030.0
1698672845.9103985,14984.0
1698672845.930808,15028.0
1698672845.9512174,15034.0
1698672845.971627,15035.0
1698672845.9920363,15036.0
1698672846.0124457,15031.0
1698672846.0328553,14984.0
1698672846.0532649,15025.0
1698672846.0736742,15021.0
1698672846.0940835,15015.0
1698672846.1144931,15013.0
1698672846.1349025,15010.0
1698672846.155312,15005.0
1698672846.1757216,15003.0
1698672846.196131,15001.0
1698672846.2165403,14999.0
1698672846.23695,14948.0
1698672846.2573593,14991.0
1698672846.277769,14987.0
1698672846.2981784,14980.0
1698672846.3185878,14979.0
1698672846.3389974,14978.0
1698672846.3594067,14977.0
1698672846.3798163,14975.0
1698672846.4002259,14973.0
1698672846.4206352,14970.0
1698672846.4410448,14974.0
1698672846.4614542,14969.0
1698672846.4818635,14965.0
1698672846.502273,14960.0
1698672846.5226827,14959.0
1698672846.543092,14913.0
1698672846.5635016,14956.0
1698672846.583911,14953.0
1698672846.6043205,14952.0
1698672846.6247299,14952.0
1698672846.6451395,14945.0
1698672846.6655488,14945.0
1698672846.6859584,14943.0
1698672846.706368,14935.0
1698672846.726777,14892.0
1698672846.7471867,14932.0
1698672846.7675962,14927.0
1698672846.7880056,14922.0
1698672846.808415,14918.0
1698672846.8288248,14915.0
1698672846.8492339,14912.0
1698672846.8696434,14865.0
1698672846.890053,14859.0
1698672846.9104624,14898.0
1698672846.930872,14889.0
1698672846.9512815,14889.0
1698672846.971691,14881.0
1698672846.9921002,14879.0
