timestamp,ppg
1698412927.0094688,13183.0
1698412927.0300636,13159.0
1698412927.0506585,13161.0
1698412927.0712533,13161.0
1698412927.0918484,13157.0
1698412927.1124432,13168.0
1698412927.133038,13161.0
1698412927.153633,13162.0
1698412927.1742277,13142.0
1698412927.1948228,13159.0
1698412927.2154174,13144.0
1698412927.2360125,13153.0
1698412927.2566075,13176.0
1698412927.2772024,13151.0
1698412927.2977972,13161.0
1698412927.318392,13171.0
1698412927.3389869,13172.0
1698412927.3595817,13159.0
1698412927.3801768,13161.0
1698412927.4007714,13161.0
1698412927.4213665,13157.0
1698412927.4419615,13168.0
1698412927.4625561,13161.0
1698412927.4831512,13162.0
1698412927.503746,13142.0
1698412927.5243409,13159.0
1698412927.5449357,13144.0
1698412927.5655308,13153.0
1698412927.5861254,13176.0
1698412927.6067204,13151.0
1698412927.6273155,13161.0
1698412927.64791,13171.0
1698412927.6685052,13172.0
1698412927.6891,13188.0
1698412927.7096949,13172.0
1698412927.7302897,13178.0
1698412927.7508848,13170.0
1698412927.7714796,13168.0
1698412927.7920744,13175.0
1698412927.8126695,13182.0
1698412927.833264,13184.0
1698412927.8538592,13177.0
1698412927.874454,13172.0
1698412927.8950489,13173.0
1698412927.9156437,13168.0
1698412927.9362383,13166.0
1698412927.9568336,13166.0
1698412927.9774284,13158.0
1698412927.9980233,13159.0
1698412928.018618,13150.0
1698412928.0392132,13156.0
1698412928.059808,13152.0
1698412928.0804029,13154.0
1698412928.1009977,13153.0
1698412928.1215923,13152.0
1698412928.1421876,13145.0
1698412928.1627824,13149.0
1698412928.1833773,13154.0
1698412928.203972,13145.0
1698412928.2245672,13153.0
1698412928.245162,13151.0
1698412928.2657568,13151.0
1698412928.286352,13153.0
1698412928.3069463,13131.0
1698412928.3275416,13159.0
1698412928.3481364,13132.0
1698412928.3687313,13160.0
1698412928.389326,13159.0
1698412928.4099212,13170.0
1698412928.430516,13165.0
1698412928.4511108,13174.0
1698412928.4717057,13168.0
1698412928.4923003,13175.0
1698412928.5128956,13175.0
1698412928.5334902,13174.0
1698412928.5540853,13181.0
1698412928.57468,13179.0
1698412928.595275,13182.0
1698412928.61587,13172.0
1698412928.6364648,13181.0
1698412928.6570597,13175.0
1698412928.6776543,13174.0
1698412928.6982496,13173.0
1698412928.7188442,13167.0
1698412928.7394392,13164.0
1698412928.760034,13167.0
1698412928.780629,13154.0
1698412928.8012242,13157.0
1698412928.8218188,13151.0
1698412928.8424137,13167.0
1698412928.8630083,13162.0
1698412928.8836036,13174.0
1698412928.9041982,13173.0
1698412928.9247932,13180.0
1698412928.945388,13177.0
1698412928.965983,13163.0
1698412928.986578,13184.0
1698412929.0071726,13192.0
1698412929.0277677,13190.0
1698412929.0483623,13193.0
1698412929.0689573,13167.0
1698412929.0895522,13197.0
1698412929.1101472,13194.0
1698412929.1307418,13195.0
1698412929.151337,13197.0
1698412929.171932,13197.0
1698412929.1925266,13204.0
1698412929.2131217,13203.0
1698412929.2337165,13204.0
1698412929.2543113,13203.0
1698412929.2749062,13207.0
1698412929.2955012,13202.0
1698412929.3160958,13201.0
1698412929.336691,13205.0
1698412929.357286,13206.0
1698412929.3778806,13207.0
1698412929.3984756,13198.0
1698412929.4190705,13204.0
1698412929.4396653,13194.0
1698412929.4602604,13196.0
1698412929.4808552,13192.0
1698412929.50145,13185.0
1698412929.522045,13183.0
1698412929.54264,13170.0
1698412929.5632346,13161.0
1698412929.5838296,13161.0
1698412929.6044242,13160.0
1698412929.6250193,13146.0
1698412929.6456144,13155.0
1698412929.666209,13150.0
1698412929.686804,13153.0
1698412929.707399,13157.0
1698412929.7279937,13155.0
1698412929.7485886,13155.0
1698412929.7691836,13165.0
1698412929.7897782,13166.0
1698412929.8103733,13168.0
1698412929.8309686,13176.0
1698412929.851563,13181.0
1698412929.872158,13185.0
1698412929.892753,13183.0
1698412929.9133477,13191.0
1698412929.9339426,13190.0
1698412929.9545376,13202.0
1698412929.9751322,13195.0
1698412929.9957273,13195.0
1698412930.0163226,13168.0
1698412930.036917,13193.0
1698412930.057512,13194.0
1698412930.0781069,13195.0
1698412930.0987017,13196.0
1698412930.1192966,13193.0
1698412930.1398914,13196.0
1698412930.1604862,13193.0
1698412930.1810813,13195.0
1698412930.2016761,13196.0
1698412930.222271,13193.0
1698412930.242866,13193.0
1698412930.2634606,13197.0
1698412930.2840557,13203.0
1698412930.3046505,13196.0
1698412930.3252454,13195.0
1698412930.3458402,13202.0
1698412930.3664353,13200.0
1698412930.3870301,13203.0
1698412930.407625,13205.0
1698412930.42822,13208.0
1698412930.4488146,13212.0
1698412930.4694097,13214.0
1698412930.4900045,13215.0
1698412930.5105994,13211.0
1698412930.5311944,13211.0
1698412930.5517893,13219.0
1698412930.572384,13217.0
1698412930.592979,13216.0
1698412930.613574,13215.0
1698412930.6341686,13220.0
1698412930.6547637,13224.0
1698412930.6753585,13225.0
1698412930.6959534,13224.0
1698412930.7165484,13227.0
1698412930.737143,13230.0
1698412930.757738,13226.0
1698412930.778333,13232.0
1698412930.7989275,13231.0
1698412930.8195226,13225.0
1698412930.8401177,13221.0
1698412930.8607123,13229.0
1698412930.8813074,13215.0
1698412930.9019024,13209.0
1698412930.922497,13202.0
1698412930.943092,13208.0
1698412930.963687,13189.0
1698412930.9842815,13182.0
1698412931.0048766,13177.0
1698412931.0254717,13178.0
1698412931.0460665,13174.0
1698412931.0666614,13176.0
1698412931.0872564,13166.0
1698412931.107851,13176.0
1698412931.128446,13180.0
1698412931.149041,13176.0
1698412931.1696355,13170.0
1698412931.1902306,13178.0
1698412931.2108257,13180.0
1698412931.2314205,13181.0
1698412931.2520154,13182.0
1698412931.2726102,13185.0
1698412931.293205,13179.0
1698412931.3138,13191.0
1698412931.3343947,13195.0
1698412931.3549895,13197.0
1698412931.3755846,13204.0
1698412931.3961794,13189.0
1698412931.4167745,13183.0
1698412931.4373693,13178.0
1698412931.4579642,13191.0
1698412931.478559,13199.0
1698412931.499154,13189.0
1698412931.5197487,13203.0
1698412931.5403438,13156.0
1698412931.5609388,13182.0
1698412931.5815334,13202.0
1698412931.6021285,13196.0
1698412931.6227233,13225.0
1698412931.6433182,13197.0
1698412931.663913,13214.0
1698412931.684508,13183.0
1698412931.7051027,13243.0
1698412931.7256978,13175.0
1698412931.7462928,13192.0
1698412931.7668877,13186.0
1698412931.7874825,13181.0
1698412931.8080773,13170.0
1698412931.8286722,13161.0
1698412931.849267,13152.0
1698412931.8698618,13151.0
1698412931.8904567,13149.0
1698412931.9110518,13145.0
1698412931.9316466,13140.0
1698412931.9522417,13133.0
1698412931.9728365,13126.0
1698412931.993431,13127.0
1698412932.014026,13118.0
1698412932.034621,13115.0
1698412932.0552158,13114.0
1698412932.075811,13110.0
1698412932.0964057,13105.0
1698412932.1170006,14995.0
1698412932.1375957,15005.0
1698412932.1581905,14981.0
1698412932.178785,14971.0
1698412932.19938,14991.0
1698412932.219975,14982.0
1698412932.2405698,14972.0
1698412932.261165,14973.0
1698412932.2817597,14969.0
1698412932.3023546,14993.0
1698412932.3229496,14959.0
1698412932.3435445,14972.0
1698412932.364139,14986.0
1698412932.384734,14991.0
1698412932.4053288,14986.0
1698412932.4259238,14991.0
1698412932.446519,14961.0
1698412932.4671135,14992.0
1698412932.4877086,14975.0
1698412932.5083036,14993.0
1698412932.5288982,14973.0
1698412932.549493,14999.0
1698412932.570088,14999.0
1698412932.5906827,14974.0
1698412932.6112778,15000.0
1698412932.631873,14994.0
1698412932.6524675,14965.0
1698412932.6730626,14999.0
1698412932.6936576,14997.0
1698412932.7142522,15001.0
1698412932.734847,15003.0
1698412932.755442,14983.0
1698412932.776037,14984.0
1698412932.7966318,14986.0
1698412932.817227,14989.0
1698412932.8378215,14993.0
1698412932.8584166,14988.0
1698412932.8790116,14980.0
1698412932.8996062,14998.0
1698412932.920201,14980.0
1698412932.940796,14988.0
1698412932.961391,14988.0
1698412932.9819858,14961.0
1698412933.0025806,14968.0
1698412933.0231755,14966.0
1698412933.0437706,14980.0
1698412933.0643651,14974.0
1698412933.0849602,14963.0
1698412933.105555,14940.0
1698412933.12615,14983.0
1698412933.146745,14976.0
1698412933.1673398,14969.0
1698412933.1879346,14986.0
1698412933.2085295,14962.0
1698412933.2291245,14987.0
1698412933.2497191,14961.0
1698412933.2703142,14989.0
1698412933.2909093,14968.0
1698412933.311504,14993.0
1698412933.332099,14972.0
1698412933.3526938,14995.0
1698412933.3732886,15016.0
1698412933.3938835,15020.0
1698412933.4144785,15017.0
1698412933.4350731,15019.0
1698412933.4556682,15024.0
1698412933.4762633,15027.0
1698412933.496858,15030.0
1698412933.517453,15031.0
1698412933.5380476,15032.0
1698412933.5586426,15031.0
1698412933.5792375,15032.0
1698412933.5998325,15009.0
1698412933.6204271,14968.0
1698412933.6410222,14971.0
1698412933.661617,14993.0
1698412933.6822119,15000.0
1698412933.702807,14996.0
1698412933.7234015,14974.0
1698412933.7439966,14996.0
1698412933.7645915,14999.0
1698412933.7851863,15000.0
1698412933.8057814,14992.0
1698412933.8263762,14993.0
1698412933.846971,14958.0
1698412933.8675659,14977.0
1698412933.888161,14972.0
1698412933.9087555,14999.0
1698412933.9293506,14999.0
1698412933.9499454,14998.0
1698412933.9705403,15020.0
1698412933.9911354,15027.0
1698412934.0117302,15033.0
1698412934.032325,15036.0
1698412934.0529199,15032.0
1698412934.073515,15034.0
1698412934.0941095,15036.0
1698412934.1147046,15039.0
1698412934.1352992,15039.0
1698412934.1558943,15030.0
1698412934.1764894,15046.0
1698412934.197084,15044.0
1698412934.217679,15036.0
1698412934.2382739,15024.0
1698412934.258869,15027.0
1698412934.2794635,14998.0
1698412934.3000586,15020.0
1698412934.3206534,15027.0
1698412934.3412483,15033.0
1698412934.3618433,15036.0
1698412934.382438,15032.0
1698412934.403033,15034.0
1698412934.4236279,15036.0
1698412934.444223,15039.0
1698412934.4648175,15039.0
1698412934.4854126,15030.0
1698412934.5060072,15046.0
1698412934.5266023,15044.0
1698412934.5471973,15036.0
1698412934.567792,15024.0
1698412934.588387,15027.0
1698412934.6089818,15043.0
1698412934.629577,15036.0
1698412934.6501715,15029.0
1698412934.6707664,15027.0
1698412934.6913612,15006.0
1698412934.7119563,15020.0
1698412934.732551,15020.0
1698412934.753146,15012.0
1698412934.773741,14967.0
1698412934.7943356,15011.0
1698412934.814931,15010.0
1698412934.8355258,15003.0
1698412934.8561203,14978.0
1698412934.8767152,14979.0
1698412934.8973103,14985.0
1698412934.917905,14975.0
1698412934.9385,15002.0
1698412934.959095,14986.0
1698412934.9796896,14984.0
1698412935.000285,14990.0
1698412935.0208797,14970.0
1698412935.0414743,14988.0
1698412935.0620692,15004.0
1698412935.0826643,14988.0
1698412935.103259,14988.0
1698412935.123854,14986.0
1698412935.144449,14988.0
1698412935.1650436,15010.0
1698412935.185639,14992.0
1698412935.2062337,14995.0
1698412935.2268283,15014.0
1698412935.2474232,14999.0
1698412935.268018,15018.0
1698412935.288613,14973.0
1698412935.309208,14998.0
1698412935.3298028,14983.0
1698412935.3503976,15022.0
1698412935.370993,14997.0
1698412935.3915875,14984.0
1698412935.4121823,14993.0
1698412935.4327772,14996.0
1698412935.453372,15000.0
1698412935.473967,15010.0
1698412935.494562,15003.0
1698412935.5151567,15002.0
1698412935.5357518,15024.0
1698412935.5563467,15007.0
1698412935.5769415,15002.0
1698412935.5975363,14985.0
1698412935.6181312,14990.0
1698412935.638726,14996.0
1698412935.659321,15009.0
1698412935.679916,14993.0
1698412935.7005107,15007.0
1698412935.7211058,14977.0
1698412935.7417006,14985.0
1698412935.7622955,14982.0
1698412935.7828903,15009.0
1698412935.8034852,14991.0
1698412935.82408,15014.0
1698412935.844675,15014.0
1698412935.8652697,15015.0
1698412935.8858647,15024.0
1698412935.9064598,15039.0
1698412935.9270544,15026.0
1698412935.9476495,15038.0
1698412935.9682443,15039.0
1698412935.9888391,15040.0
1698412936.009434,15040.0
1698412936.030029,15046.0
1698412936.050624,15038.0
1698412936.0712187,15041.0
1698412936.0918138,15051.0
1698412936.1124084,15050.0
1698412936.1330035,15060.0
1698412936.1535983,15072.0
1698412936.1741931,15082.0
1698412936.194788,15102.0
1698412936.215383,15118.0
1698412936.235978,15113.0
1698412936.2565727,15247.0
1698412936.2771676,15293.0
1698412936.2977624,15309.0
1698412936.3183575,15336.0
1698412936.3389523,15363.0
1698412936.3595471,15393.0
1698412936.380142,15398.0
1698412936.4007368,15416.0
1698412936.421332,15421.0
1698412936.4419267,15422.0
1698412936.4625216,15436.0
1698412936.4831164,15428.0
1698412936.5037115,15404.0
1698412936.524306,15416.0
1698412936.5449011,15407.0
1698412936.5654962,15398.0
1698412936.5860908,15247.0
1698412936.6066859,15293.0
1698412936.6272807,15309.0
1698412936.6478755,15336.0
1698412936.6684704,15363.0
1698412936.6890655,15393.0
1698412936.70966,15398.0
1698412936.7302551,15416.0
1698412936.7508502,15421.0
1698412936.7714448,15422.0
1698412936.7920399,15436.0
1698412936.8126347,15428.0
1698412936.8332295,15404.0
1698412936.8538244,15416.0
1698412936.8744195,15407.0
1698412936.895014,15398.0
1698412936.9156091,15364.0
1698412936.9362042,15368.0
1698412936.9567988,15354.0
1698412936.9773939,15395.0
1698412936.9979882,15415.0
1698412937.0185835,15421.0
1698412937.0391784,15438.0
1698412937.0597732,15420.0
1698412937.0803683,15454.0
1698412937.100963,15434.0
1698412937.1215582,15441.0
1698412937.1421528,15438.0
1698412937.1627479,15457.0
1698412937.1833422,15442.0
1698412937.2039375,15440.0
1698412937.2245324,15439.0
1698412937.2451272,15465.0
1698412937.2657223,15467.0
1698412937.286317,15468.0
1698412937.3069122,15450.0
1698412937.3275068,15497.0
1698412937.3481019,15510.0
1698412937.3686962,15545.0
1698412937.3892915,15563.0
1698412937.4098864,15611.0
1698412937.4304812,15631.0
1698412937.4510763,15699.0
1698412937.471671,15747.0
1698412937.4922662,15779.0
1698412937.5128608,15818.0
1698412937.5334556,15854.0
1698412937.5540502,15892.0
1698412937.5746455,16264.0
1698412937.59524,16290.0
1698412937.6158352,16320.0
1698412937.6364303,16347.0
1698412937.6570249,16374.0
1698412937.6776202,16379.0
1698412937.6982148,16420.0
1698412937.7188096,16420.0
1698412937.7394042,16467.0
1698412937.7599995,16484.0
1698412937.7805943,16502.0
1698412937.8011892,16512.0
1698412937.8217843,16512.0
1698412937.8423789,16512.0
1698412937.8629742,16506.0
1698412937.8835688,16512.0
1698412937.9041636,16512.0
1698412937.9247582,16512.0
1698412937.9453535,16512.0
1698412937.9659483,16512.0
1698412937.9865432,16512.0
1698412938.0071383,16512.0
1698412938.0277328,16512.0
1698412938.048328,16512.0
1698412938.0689225,16512.0
1698412938.0895176,16512.0
1698412938.1101122,16512.0
1698412938.1307073,16512.0
1698412938.1513023,16512.0
1698412938.1718972,16512.0
1698412938.192492,16512.0
1698412938.2130868,16512.0
1698412938.233682,16512.0
1698412938.2542765,16512.0
1698412938.2748716,16512.0
1698412938.2954667,16512.0
1698412938.3160613,16512.0
1698412938.3366563,16512.0
1698412938.3572512,16512.0
1698412938.377846,16512.0
1698412938.3984408,16512.0
1698412938.419036,16512.0
1698412938.4396305,16512.0
1698412938.4602256,16512.0
1698412938.4808207,16512.0
1698412938.5014153,16512.0
1698412938.5220106,16512.0
1698412938.5426052,16512.0
1698412938.5632,16512.0
1698412938.5837948,16512.0
1698412938.60439,16512.0
1698412938.6249845,16512.0
1698412938.6455796,16512.0
1698412938.6661744,16512.0
1698412938.6867692,16512.0
1698412938.7073646,16512.0
1698412938.727959,16512.0
1698412938.748554,16512.0
1698412938.7691488,16512.0
1698412938.7897437,16512.0
1698412938.8103387,16512.0
1698412938.8309336,16512.0
1698412938.8515284,12275.0
1698412938.8721232,12287.0
1698412938.8927186,12237.0
1698412938.913313,12256.0
1698412938.933908,12302.0
1698412938.9545028,12263.0
1698412938.9750977,12310.0
1698412938.9956927,12308.0
1698412939.0162876,12301.0
1698412939.0368824,12297.0
1698412939.0574772,12294.0
1698412939.0780725,12293.0
1698412939.098667,12286.0
1698412939.119262,12280.0
1698412939.1398568,12273.0
1698412939.1604517,12271.0
1698412939.1810467,12263.0
1698412939.2016413,12259.0
1698412939.2222364,12375.0
1698412939.2428312,12389.0
1698412939.263426,12393.0
1698412939.284021,12403.0
1698412939.304616,12401.0
1698412939.3252108,12409.0
1698412939.3458056,12409.0
1698412939.3664007,12406.0
1698412939.3869953,12399.0
1698412939.4075904,12392.0
1698412939.4281852,12352.0
1698412939.44878,12377.0
1698412939.469375,12384.0
1698412939.48997,12385.0
1698412939.5105648,12398.0
1698412939.5311596,12361.0
1698412939.5517547,12375.0
1698412939.5723493,12389.0
1698412939.5929444,12393.0
1698412939.6135392,12403.0
1698412939.634134,12401.0
1698412939.654729,12409.0
1698412939.675324,12409.0
1698412939.6959188,12406.0
1698412939.7165136,12399.0
1698412939.7371087,12392.0
1698412939.7577033,12352.0
1698412939.7782984,12377.0
1698412939.798893,12384.0
1698412939.819488,12385.0
1698412939.8400831,12398.0
1698412939.8606775,12361.0
1698412939.8812728,12304.0
1698412939.9018676,12392.0
1698412939.9224625,12407.0
1698412939.9430573,12388.0
1698412939.9636524,12409.0
1698412939.984247,12405.0
1698412940.004842,12401.0
1698412940.025437,12390.0
1698412940.0460315,12387.0
1698412940.0666268,12394.0
1698412940.0872216,12390.0
1698412940.1078165,12407.0
1698412940.1284113,12354.0
1698412940.1490064,12392.0
1698412940.169601,12351.0
1698412940.190196,12348.0
1698412940.210791,12372.0
1698412940.2313855,12328.0
1698412940.2519808,12379.0
1698412940.2725756,12339.0
1698412940.2931705,12342.0
1698412940.3137653,12387.0
1698412940.3343601,12398.0
1698412940.3549552,12393.0
1698412940.37555,12392.0
1698412940.3961449,12397.0
1698412940.4167395,12363.0
1698412940.4373348,12382.0
1698412940.4579294,12401.0
1698412940.4785244,12372.0
1698412940.4991193,12379.0
1698412940.519714,12355.0
1698412940.5403092,12372.0
1698412940.560904,12328.0
1698412940.5814989,12379.0
1698412940.6020937,12339.0
1698412940.6226888,12342.0
1698412940.6432834,12387.0
1698412940.6638784,12398.0
1698412940.6844733,12393.0
1698412940.705068,12392.0
1698412940.7256632,12397.0
1698412940.746258,12363.0
1698412940.7668529,12382.0
1698412940.7874477,12401.0
1698412940.8080428,12372.0
1698412940.8286376,12379.0
1698412940.8492324,12355.0
1698412940.8698275,12429.0
1698412940.890422,12436.0
1698412940.9110172,12422.0
1698412940.9316118,12418.0
1698412940.9522069,12447.0
1698412940.9728017,12448.0
1698412940.9933965,12456.0
1698412941.0139916,12450.0
1698412941.0345864,12450.0
1698412941.0551813,12434.0
1698412941.0757759,12457.0
1698412941.0963712,12447.0
1698412941.1169658,12412.0
1698412941.1375608,12445.0
1698412941.1581557,12452.0
1698412941.1787505,12454.0
1698412941.1993456,12453.0
1698412941.2199404,12453.0
1698412941.2405353,12454.0
1698412941.2611299,12455.0
1698412941.2817252,12455.0
1698412941.3023198,12456.0
1698412941.3229148,12410.0
1698412941.3435097,12455.0
1698412941.3641045,12414.0
1698412941.3846998,12453.0
1698412941.4052944,12448.0
1698412941.4258893,12407.0
1698412941.4464839,12445.0
1698412941.467079,12452.0
1698412941.4876738,12444.0
1698412941.5082688,12399.0
1698412941.5288634,12402.0
1698412941.5494585,12405.0
1698412941.5700538,12408.0
1698412941.5906482,12413.0
1698412941.6112432,12373.0
1698412941.6318378,12418.0
1698412941.652433,12420.0
1698412941.6730278,12384.0
1698412941.6936228,12438.0
1698412941.7142174,12414.0
1698412941.7348125,12436.0
1698412941.7554078,12437.0
1698412941.7760022,12424.0
1698412941.7965972,12428.0
1698412941.8171918,12386.0
1698412941.837787,12387.0
1698412941.8583817,12402.0
1698412941.8789768,12405.0
1698412941.8995714,12408.0
1698412941.9201665,12413.0
1698412941.9407618,12373.0
1698412941.9613562,12418.0
1698412941.9819512,12420.0
1698412942.0025458,12384.0
1698412942.023141,12438.0
1698412942.0437357,12414.0
1698412942.0643306,12436.0
1698412942.0849257,12437.0
1698412942.1055205,12424.0
1698412942.1261153,12428.0
1698412942.1467102,12386.0
1698412942.1673052,12387.0
1698412942.1878998,12427.0
1698412942.208495,12432.0
1698412942.2290897,12423.0
1698412942.2496846,12421.0
1698412942.2702796,12457.0
1698412942.2908745,12436.0
1698412942.3114693,12442.0
1698412942.3320642,12431.0
1698412942.3526592,12401.0
1698412942.3732538,12431.0
1698412942.393849,12428.0
1698412942.4144437,12423.0
1698412942.4350386,12409.0
1698412942.4556336,12413.0
1698412942.4762285,12403.0
1698412942.4968233,12393.0
1698412942.5174181,12382.0
1698412942.5380132,12376.0
1698412942.5586078,12373.0
1698412942.579203,12325.0
1698412942.5997977,12314.0
1698412942.6203926,12356.0
1698412942.6409876,12349.0
1698412942.6615825,12339.0
1698412942.6821773,12291.0
1698412942.7027721,12332.0
1698412942.723367,12279.0
1698412942.7439618,12317.0
1698412942.764557,12270.0
1698412942.7851517,12308.0
1698412942.8057466,12296.0
1698412942.8263416,12246.0
1698412942.8469362,12287.0
1698412942.8675313,12240.0
1698412942.8881261,12280.0
1698412942.908721,12281.0
1698412942.9293158,12270.0
1698412942.9499109,12231.0
1698412942.9705057,12269.0
1698412942.9911005,12225.0
1698412943.0116956,12261.0
1698412943.0322902,12264.0
1698412943.0528853,12262.0
1698412943.0734801,12261.0
1698412943.094075,12216.0
1698412943.11467,12207.0
1698412943.1352649,12248.0
1698412943.1558597,12252.0
1698412943.1764545,12307.0
1698412943.1970494,12313.0
1698412943.2176442,12347.0
1698412943.2382393,12315.0
1698412943.258834,12360.0
1698412943.279429,12365.0
1698412943.300024,12359.0
1698412943.3206189,12359.0
1698412943.3412137,12436.0
1698412943.3618085,12350.0
1698412943.3824034,12349.0
1698412943.4029982,12354.0
1698412943.4235933,12342.0
1698412943.4441879,12335.0
1698412943.464783,12323.0
1698412943.485378,12307.0
1698412943.5059729,12307.0
1698412943.5265677,12313.0
1698412943.5471625,12347.0
1698412943.5677571,12315.0
1698412943.5883522,12360.0
1698412943.6089473,12365.0
1698412943.6295419,12359.0
1698412943.650137,12359.0
1698412943.670732,12436.0
1698412943.6913269,12350.0
1698412943.7119217,12349.0
1698412943.7325163,12354.0
1698412943.7531111,12342.0
1698412943.7737062,12335.0
1698412943.794301,12323.0
1698412943.814896,12307.0
1698412943.835491,12319.0
1698412943.8560858,12272.0
1698412943.8766809,12302.0
1698412943.8972757,12283.0
1698412943.9178703,12254.0
1698412943.938465,12278.0
1698412943.9590602,12264.0
1698412943.979655,12287.0
1698412944.00025,12264.0
1698412944.020845,12254.0
1698412944.0414398,12246.0
1698412944.0620348,12243.0
1698412944.0826297,12230.0
1698412944.1032243,12227.0
1698412944.123819,12181.0
1698412944.1444144,12213.0
1698412944.165009,12230.0
1698412944.185604,12232.0
1698412944.206199,12182.0
1698412944.2267938,12176.0
1698412944.2473888,12208.0
1698412944.2679837,12201.0
1698412944.2885783,12201.0
1698412944.309173,12165.0
1698412944.3297682,12153.0
1698412944.350363,12182.0
1698412944.370958,12206.0
1698412944.3915527,12194.0
1698412944.4121478,12205.0
1698412944.4327428,12156.0
1698412944.4533374,12206.0
1698412944.4739323,12190.0
1698412944.494527,12230.0
1698412944.5151222,12232.0
1698412944.535717,12182.0
1698412944.556312,12176.0
1698412944.5769067,12208.0
1698412944.5975018,12201.0
1698412944.6180966,12201.0
1698412944.6386914,12165.0
1698412944.6592863,12153.0
1698412944.679881,12182.0
1698412944.7004762,12206.0
1698412944.721071,12194.0
1698412944.741666,12205.0
1698412944.7622607,12156.0
1698412944.7828557,12206.0
1698412944.8034506,12190.0
1698412944.8240454,12161.0
1698412944.8446405,12186.0
1698412944.865235,12187.0
1698412944.8858302,12146.0
1698412944.906425,12168.0
1698412944.9270198,12179.0
1698412944.9476147,12169.0
1698412944.9682097,12166.0
1698412944.9888043,12151.0
1698412945.0093994,12116.0
1698412945.0299945,12152.0
1698412945.050589,12142.0
1698412945.0711842,12133.0
1698412945.091779,12121.0
1698412945.1123738,12102.0
1698412945.1329687,12096.0
1698412945.1535637,12080.0
1698412945.1741583,12033.0
1698412945.1947534,12067.0
1698412945.2153485,12056.0
1698412945.235943,12049.0
1698412945.2565382,12046.0
1698412945.277133,12044.0
1698412945.2977278,12038.0
1698412945.3183227,12028.0
1698412945.3389175,12023.0
1698412945.3595126,11982.0
1698412945.3801074,11983.0
1698412945.4007025,12025.0
1698412945.421297,12036.0
1698412945.4418921,12005.0
1698412945.4624867,12045.0
1698412945.4830818,12052.0
1698412945.5036767,12058.0
1698412945.5242715,12062.0
1698412945.5448666,12066.0
1698412945.5654614,12035.0
1698412945.5860562,12038.0
1698412945.606651,12091.0
1698412945.6272461,12101.0
1698412945.6478407,12115.0
1698412945.6684358,12130.0
1698412945.6890306,12134.0
1698412945.7096255,12101.0
1698412945.7302206,12151.0
1698412945.7508154,12154.0
1698412945.7714102,12160.0
1698412945.792005,12160.0
1698412945.8126001,12116.0
1698412945.8331947,12158.0
1698412945.8537898,12154.0
1698412945.8743849,12117.0
1698412945.8949795,12109.0
1698412945.9155746,12143.0
1698412945.9361694,12113.0
1698412945.9567642,12096.0
1698412945.977359,12172.0
1698412945.9979541,12152.0
1698412946.0185487,12143.0
1698412946.0391438,12147.0
1698412946.0597384,12107.0
1698412946.0803335,12185.0
1698412946.1009285,12145.0
1698412946.1215231,12137.0
1698412946.1421182,12163.0
1698412946.162713,12161.0
1698412946.1833081,12171.0
1698412946.2039027,12176.0
1698412946.2244978,12234.0
1698412946.2450924,12211.0
1698412946.2656875,12215.0
1698412946.2862825,12215.0
1698412946.3068771,12214.0
1698412946.3274722,12214.0
1698412946.348067,12212.0
1698412946.368662,12203.0
1698412946.389257,12197.0
1698412946.4098518,12194.0
1698412946.4304464,12177.0
1698412946.4510415,12165.0
1698412946.4716365,12146.0
1698412946.4922311,12134.0
1698412946.5128262,12121.0
1698412946.533421,12106.0
1698412946.554016,12096.0
1698412946.574611,12085.0
1698412946.5952055,12082.0
1698412946.6158004,12077.0
1698412946.6363955,12082.0
1698412946.6569903,12040.0
1698412946.6775851,12041.0
1698412946.6981802,12082.0
1698412946.7187748,12094.0
1698412946.73937,12063.0
1698412946.759965,12122.0
1698412946.7805595,12142.0
1698412946.8011544,12122.0
1698412946.8217494,12186.0
1698412946.8423443,12157.0
1698412946.8629391,12215.0
1698412946.8835342,12222.0
1698412946.9041288,12225.0
1698412946.924724,12193.0
1698412946.945319,12236.0
1698412946.9659135,12190.0
1698412946.9865084,12231.0
1698412947.0071034,12237.0
1698412947.0276983,12232.0
1698412947.048293,12194.0
1698412947.0688882,12232.0
1698412947.089483,12231.0
1698412947.1100779,12222.0
1698412947.1306727,12215.0
1698412947.1512675,12214.0
1698412947.1718624,12205.0
1698412947.1924572,12201.0
1698412947.2130523,12195.0
1698412947.233647,12195.0
1698412947.254242,12188.0
1698412947.274837,12186.0
1698412947.2954319,12178.0
1698412947.3160267,12174.0
1698412947.3366215,12167.0
1698412947.3572166,12167.0
1698412947.3778112,12159.0
1698412947.3984063,12151.0
1698412947.419001,12148.0
1698412947.439596,12143.0
1698412947.460191,12136.0
1698412947.4807858,12128.0
1698412947.5013807,12129.0
1698412947.5219755,12126.0
1698412947.5425706,12122.0
1698412947.5631652,12123.0
1698412947.5837605,12118.0
1698412947.6043553,12114.0
1698412947.62495,12108.0
1698412947.645545,12096.0
1698412947.6661398,12086.0
1698412947.6867347,12081.0
1698412947.7073295,12067.0
1698412947.7279243,12066.0
1698412947.7485192,12034.0
1698412947.7691145,12080.0
1698412947.789709,12084.0
1698412947.810304,12051.0
1698412947.830899,12089.0
1698412947.8514936,12093.0
1698412947.8720887,12074.0
1698412947.8926835,12068.0
1698412947.9132783,12068.0
1698412947.9338732,12087.0
1698412947.9544685,12105.0
1698412947.975063,12114.0
1698412947.995658,12120.0
1698412948.016253,12143.0
1698412948.0368476,12148.0
1698412948.0574427,12159.0
1698412948.0780375,12167.0
1698412948.0986323,12179.0
1698412948.1192274,12170.0
1698412948.1398225,12173.0
1698412948.160417,12194.0
1698412948.181012,12198.0
1698412948.201607,12237.0
1698412948.2222016,12210.0
1698412948.2427967,12218.0
1698412948.2633913,12173.0
1698412948.2839863,12226.0
1698412948.3045814,12184.0
1698412948.325176,12230.0
1698412948.345771,12233.0
1698412948.366366,12233.0
1698412948.3869607,12238.0
1698412948.4075556,12191.0
1698412948.4281507,12240.0
1698412948.4487453,12240.0
1698412948.4693403,12247.0
1698412948.4899354,12249.0
1698412948.51053,12248.0
1698412948.531125,12240.0
1698412948.55172,12239.0
1698412948.5723147,12235.0
1698412948.5929096,12234.0
1698412948.6135046,12232.0
1698412948.6340995,12223.0
1698412948.6546943,12218.0
1698412948.6752894,12209.0
1698412948.695884,12198.0
1698412948.716479,12191.0
1698412948.737074,12138.0
1698412948.7576687,12172.0
1698412948.7782636,12120.0
1698412948.7988586,12152.0
1698412948.8194535,12152.0
1698412948.8400483,12147.0
1698412948.8606431,12115.0
1698412948.881238,12163.0
1698412948.901833,12178.0
1698412948.9224274,12186.0
1698412948.9430227,12192.0
1698412948.9636176,12197.0
1698412948.9842124,12210.0
1698412949.0048075,12217.0
1698412949.0254023,12227.0
1698412949.0459971,12239.0
1698412949.066592,12237.0
1698412949.087187,12239.0
1698412949.1077814,12259.0
1698412949.1283767,12219.0
1698412949.1489718,12213.0
1698412949.1695664,12252.0
1698412949.1901615,12248.0
1698412949.2107563,12238.0
1698412949.2313511,12224.0
1698412949.251946,12211.0
1698412949.272541,12193.0
1698412949.2931354,12173.0
1698412949.3137307,12162.0
1698412949.3343258,12107.0
1698412949.3549204,12136.0
1698412949.3755155,12125.0
1698412949.39611,12105.0
1698412949.4167051,12085.0
1698412949.4373,12099.0
1698412949.4578948,12086.0
1698412949.4784894,12083.0
1698412949.4990847,12089.0
1698412949.5196795,12068.0
1698412949.5402744,12067.0
1698412949.5608695,12001.0
1698412949.581464,12049.0
1698412949.6020591,12036.0
1698412949.622654,12041.0
1698412949.6432488,12039.0
1698412949.6638436,12045.0
1698412949.6844387,12054.0
1698412949.7050335,12068.0
1698412949.7256284,12074.0
1698412949.7462234,12086.0
1698412949.766818,12099.0
1698412949.7874131,12086.0
1698412949.808008,12083.0
1698412949.8286028,12089.0
1698412949.8491979,12068.0
1698412949.8697927,12067.0
1698412949.8903878,12001.0
1698412949.9109824,12049.0
1698412949.9315774,12036.0
1698412949.952172,12041.0
1698412949.972767,12039.0
1698412949.9933617,12045.0
1698412950.0139568,12054.0
1698412950.0345519,12068.0
1698412950.0551465,12074.0
1698412950.0757418,12086.0
1698412950.0963364,12085.0
1698412950.1169312,12093.0
1698412950.1375258,12097.0
1698412950.158121,12053.0
1698412950.1787157,12101.0
1698412950.1993108,12102.0
1698412950.2199059,12107.0
1698412950.2405005,12114.0
1698412950.2610958,12115.0
1698412950.2816904,12121.0
1698412950.3022852,12080.0
1698412950.3228798,12117.0
1698412950.343475,12126.0
1698412950.36407,12120.0
1698412950.3846648,12122.0
1698412950.4052598,12082.0
1698412950.4258544,12131.0
1698412950.4464498,12125.0
1698412950.4670444,12126.0
1698412950.4876392,12098.0
1698412950.5082338,12140.0
1698412950.5288289,12141.0
1698412950.549424,12100.0
1698412950.5700188,12103.0
1698412950.5906136,12103.0
1698412950.6112084,12147.0
1698412950.6318038,12141.0
1698412950.652398,12101.0
1698412950.6729932,12147.0
1698412950.6935878,12143.0
1698412950.7141829,12146.0
1698412950.734778,12145.0
1698412950.7553728,12145.0
1698412950.7759676,12094.0
1698412950.7965624,12141.0
1698412950.8171577,12145.0
1698412950.837752,12142.0
1698412950.8583472,12136.0
1698412950.878942,12091.0
1698412950.8995368,12121.0
1698412950.920132,12116.0
1698412950.9407268,12111.0
1698412950.9613216,12098.0
1698412950.9819164,12089.0
1698412951.0025117,12079.0
1698412951.023106,12067.0
1698412951.0437012,12054.0
1698412951.064296,12040.0
1698412951.0848908,12022.0
1698412951.105486,12071.0
1698412951.1260805,12079.0
1698412951.1466756,12080.0
1698412951.1672704,12091.0
1698412951.1878653,12046.0
1698412951.20846,12089.0
1698412951.2290552,12091.0
1698412951.24965,12089.0
1698412951.2702448,12085.0
1698412951.29084,12085.0
1698412951.3114345,12036.0
1698412951.3320296,12081.0
1698412951.3526244,12079.0
1698412951.3732193,12080.0
1698412951.3938143,12074.0
1698412951.4144092,12022.0
1698412951.435004,12071.0
1698412951.4555988,12079.0
1698412951.476194,12080.0
1698412951.4967885,12091.0
1698412951.5173836,12046.0
1698412951.5379784,12089.0
1698412951.5585732,12091.0
1698412951.5791683,12089.0
1698412951.5997632,12085.0
1698412951.620358,12085.0
1698412951.6409528,12036.0
1698412951.6615477,12081.0
1698412951.6821425,12079.0
1698412951.7027376,12080.0
1698412951.7233324,12074.0
1698412951.7439272,12103.0
1698412951.7645223,12073.0
1698412951.785117,12018.0
1698412951.805712,12080.0
1698412951.8263068,12090.0
1698412951.8469017,12072.0
1698412951.8674965,12046.0
1698412951.8880916,12041.0
1698412951.9086862,12037.0
1698412951.9292812,12069.0
1698412951.9498763,12070.0
1698412951.970471,12058.0
1698412951.991066,12051.0
1698412952.0116608,12026.0
1698412952.0322556,12022.0
1698412952.0528505,12013.0
1698412952.0734456,11999.0
1698412952.0940404,11991.0
1698412952.1146352,11989.0
1698412952.1352303,11988.0
1698412952.155825,11983.0
1698412952.17642,11984.0
1698412952.1970148,11976.0
1698412952.2176096,11982.0
1698412952.2382045,11937.0
1698412952.2587993,11966.0
1698412952.2793944,11963.0
1698412952.2999892,11949.0
1698412952.320584,11942.0
1698412952.341179,11933.0
1698412952.361774,11927.0
1698412952.3823688,11883.0
1698412952.4029636,11877.0
1698412952.4235587,11915.0
1698412952.4441533,11915.0
1698412952.4647484,11921.0
1698412952.4853432,11922.0
1698412952.505938,11926.0
1698412952.526533,11929.0
1698412952.547128,11929.0
1698412952.5677228,11941.0
1698412952.5883176,11953.0
1698412952.6089127,11945.0
1698412952.629507,11911.0
1698412952.6501024,11967.0
1698412952.6706972,11981.0
1698412952.691292,11986.0
1698412952.711887,11943.0
1698412952.732482,11877.0
1698412952.7530768,11915.0
1698412952.7736716,11915.0
1698412952.7942665,11921.0
1698412952.814861,11922.0
1698412952.8354564,11926.0
1698412952.856051,11929.0
1698412952.876646,11929.0
1698412952.8972409,11941.0
1698412952.9178357,11953.0
1698412952.938431,11945.0
1698412952.9590256,11911.0
1698412952.9796205,11967.0
1698412953.000215,11981.0
1698412953.0208104,11986.0
1698412953.041405,11943.0
1698412953.062,11977.0
1698412953.0825949,11987.0
1698412953.1031897,11999.0
1698412953.123785,11956.0
1698412953.1443796,11994.0
1698412953.1649745,12003.0
1698412953.185569,12006.0
1698412953.2061644,11999.0
1698412953.226759,12016.0
1698412953.247354,11968.0
1698412953.2679489,11960.0
1698412953.2885437,11910.0
1698412953.309139,11928.0
1698412953.3297336,11873.0
1698412953.3503284,11902.0
1698412953.370923,11881.0
1698412953.391518,11820.0
1698412953.412113,11848.0
1698412953.432708,11825.0
1698412953.4533026,11814.0
1698412953.4738977,11796.0
1698412953.494493,11751.0
1698412953.5150874,11781.0
1698412953.5356824,11783.0
1698412953.556277,11785.0
1698412953.576872,11791.0
1698412953.597467,11759.0
1698412953.618062,11812.0
1698412953.6386569,11828.0
1698412953.6592517,11842.0
1698412953.6798468,11858.0
1698412953.7004414,11881.0
1698412953.7210364,11993.0
1698412953.741631,11995.0
1698412953.762226,11992.0
1698412953.782821,11992.0
1698412953.803416,11995.0
1698412953.8240108,11988.0
1698412953.8446057,11986.0
1698412953.8652008,11983.0
1698412953.8857954,11982.0
1698412953.9063904,11975.0
1698412953.926985,11970.0
1698412953.94758,11975.0
1698412953.968175,11957.0
1698412953.9887698,11961.0
1698412954.0093648,11944.0
1698412954.0299597,11951.0
1698412954.0505545,11941.0
1698412954.0711493,11945.0
1698412954.0917444,11933.0
1698412954.112339,11967.0
1698412954.132934,11945.0
1698412954.1535292,11942.0
1698412954.1741238,11925.0
1698412954.1947188,11912.0
1698412954.2153137,11958.0
1698412954.2359085,11963.0
1698412954.2565033,11956.0
1698412954.2770984,11955.0
1698412954.297693,11950.0
1698412954.318288,11946.0
1698412954.3388832,11936.0
1698412954.3594778,11931.0
1698412954.3800728,11941.0
1698412954.4006674,11945.0
1698412954.4212625,11933.0
1698412954.4418573,11967.0
1698412954.4624524,11945.0
1698412954.483047,11942.0
1698412954.503642,11925.0
1698412954.524237,11912.0
1698412954.5448318,11958.0
1698412954.5654268,11963.0
1698412954.5860214,11956.0
1698412954.6066165,11955.0
1698412954.6272113,11950.0
1698412954.6478062,11946.0
1698412954.6684012,11936.0
1698412954.688996,11931.0
1698412954.709591,11920.0
1698412954.7301857,11909.0
1698412954.7507808,11862.0
1698412954.7713754,11888.0
1698412954.7919705,11879.0
1698412954.8125653,11834.0
1698412954.8331602,11874.0
1698412954.8537552,11882.0
1698412954.87435,11887.0
1698412954.894945,11890.0
1698412954.9155397,11903.0
1698412954.9361348,11908.0
1698412954.9567294,11918.0
1698412954.9773245,11926.0
1698412954.9979193,11937.0
1698412955.0185142,11912.0
1698412955.0391092,11922.0
1698412955.059704,11970.0
1698412955.080299,11977.0
1698412955.1008937,11941.0
1698412955.1214883,11986.0
1698412955.1420834,11946.0
1698412955.1626785,12003.0
1698412955.183273,12006.0
1698412955.2038682,11969.0
1698412955.2244632,12024.0
1698412955.245058,12024.0
1698412955.265653,12032.0
1698412955.2862477,12050.0
1698412955.3068423,12056.0
1698412955.3274374,12061.0
1698412955.3480325,12072.0
1698412955.3686273,12042.0
1698412955.3892221,12085.0
1698412955.4098172,12101.0
1698412955.430412,12069.0
1698412955.451007,12121.0
1698412955.4716017,12136.0
1698412955.4921963,12110.0
1698412955.5127914,12168.0
1698412955.5333865,12182.0
1698412955.5539813,12192.0
1698412955.5745761,12189.0
1698412955.5951712,12190.0
1698412955.615766,12186.0
1698412955.636361,12177.0
1698412955.6569555,12152.0
1698412955.6775503,12137.0
1698412955.6981454,12067.0
1698412955.7187402,12087.0
1698412955.7393353,12063.0
1698412955.7599301,12042.0
1698412955.780525,12031.0
1698412955.80112,12010.0
1698412955.8217149,11996.0
1698412955.8423095,11982.0
1698412955.8629043,11976.0
1698412955.8834996,11973.0
1698412955.9040942,11966.0
1698412955.9246893,11965.0
1698412955.9452841,11964.0
1698412955.965879,11966.0
1698412955.986474,11972.0
1698412956.0070689,11987.0
1698412956.0276635,12004.0
1698412956.0482583,12017.0
1698412956.0688536,12033.0
1698412956.0894482,12047.0
1698412956.1100433,12055.0
1698412956.1306381,12066.0
1698412956.151233,12073.0
1698412956.1718278,12074.0
1698412956.1924226,12078.0
1698412956.2130175,12087.0
1698412956.2336123,12091.0
1698412956.2542074,12092.0
1698412956.2748022,12075.0
1698412956.2953973,12073.0
1698412956.3159919,12061.0
1698412956.336587,12050.0
1698412956.3571818,12002.0
1698412956.3777766,12034.0
1698412956.3983717,12027.0
1698412956.4189665,12017.0
1698412956.4395614,12017.0
1698412956.4601562,12004.0
1698412956.4807513,11999.0
1698412956.5013459,11999.0
1698412956.521941,11993.0
1698412956.5425358,11985.0
1698412956.5631306,11980.0
1698412956.5837257,11974.0
1698412956.6043205,11962.0
1698412956.6249154,11959.0
1698412956.6455104,11950.0
1698412956.6661053,11941.0
1698412956.6866999,11940.0
1698412956.707295,11939.0
1698412956.7278898,11900.0
1698412956.7484846,11943.0
1698412956.7690797,11943.0
1698412956.7896743,11952.0
1698412956.8102694,11957.0
1698412956.8308644,11960.0
1698412956.851459,11962.0
1698412956.8720539,11959.0
1698412956.892649,11962.0
1698412956.9132438,11955.0
1698412956.9338386,11951.0
1698412956.9544337,11943.0
1698412956.9750283,11940.0
1698412956.9956234,11926.0
1698412957.0162184,11861.0
1698412957.036813,11868.0
1698412957.0574079,11869.0
1698412957.078003,11874.0
1698412957.0985978,11875.0
1698412957.1191926,11880.0
1698412957.1397877,11843.0
1698412957.1603823,11853.0
1698412957.1809773,11912.0
1698412957.2015724,11884.0
1698412957.222167,11902.0
1698412957.2427619,11908.0
1698412957.263357,11864.0
1698412957.2839518,11926.0
1698412957.3045466,11899.0
1698412957.3251414,11971.0
1698412957.3457363,11861.0
1698412957.3663313,11868.0
1698412957.386926,11869.0
1698412957.407521,11874.0
1698412957.428116,11875.0
1698412957.4487107,11880.0
1698412957.4693058,11843.0
1698412957.4899006,11853.0
1698412957.5104954,11912.0
1698412957.5310903,11884.0
1698412957.5516853,11902.0
1698412957.57228,11908.0
1698412957.592875,11864.0
1698412957.61347,11926.0
1698412957.6340647,11899.0
1698412957.6546597,11971.0
1698412957.6752546,11982.0
1698412957.6958494,11981.0
1698412957.7164443,12004.0
1698412957.7370393,12033.0
1698412957.757634,12037.0
1698412957.778229,12065.0
1698412957.798824,12089.0
1698412957.8194187,12090.0
1698412957.8400137,12127.0
1698412957.8606086,12141.0
1698412957.8812034,12164.0
1698412957.9017982,12178.0
1698412957.922393,12187.0
1698412957.942988,12193.0
1698412957.963583,12199.0
1698412957.9841776,12161.0
1698412958.0047727,12194.0
1698412958.0253677,12178.0
1698412958.0459623,12162.0
1698412958.0665574,12144.0
1698412958.0871522,12122.0
1698412958.107747,12102.0
1698412958.1283422,12081.0
1698412958.148937,12023.0
1698412958.1695316,12009.0
1698412958.1901267,12037.0
1698412958.2107217,11985.0
1698412958.2313163,11985.0
1698412958.2519114,12015.0
1698412958.2725062,12014.0
1698412958.293101,12008.0
1698412958.3136961,12008.0
1698412958.334291,12013.0
1698412958.3548856,12029.0
1698412958.3754807,12046.0
1698412958.3960757,12065.0
1698412958.4166703,12037.0
1698412958.4372654,12094.0
1698412958.45786,12101.0
1698412958.478455,12104.0
1698412958.4990501,12115.0
1698412958.5196447,12115.0
1698412958.5402396,12113.0
1698412958.5608346,12117.0
1698412958.5814295,12119.0
1698412958.6020243,12115.0
1698412958.6226194,12082.0
1698412958.6432142,12125.0
1698412958.663809,12125.0
1698412958.6844041,12119.0
1698412958.7049987,12110.0
1698412958.7255938,12104.0
1698412958.7461886,12099.0
1698412958.7667835,12091.0
1698412958.7873783,12088.0
1698412958.8079734,12083.0
1698412958.8285682,12077.0
1698412958.849163,12074.0
1698412958.8697581,12077.0
1698412958.8903527,12072.0
1698412958.9109478,12068.0
1698412958.9315426,12066.0
1698412958.9521377,12056.0
1698412958.9727323,12019.0
1698412958.9933274,11893.0
1698412959.0139222,11847.0
1698412959.034517,11868.0
1698412959.055112,11849.0
1698412959.0757067,11795.0
1698412959.0963018,11833.0
1698412959.1168964,11861.0
1698412959.1374917,11834.0
1698412959.1580865,11841.0
1698412959.1786811,11848.0
1698412959.199276,11844.0
1698412959.219871,11843.0
1698412959.2404659,11841.0
1698412959.2610607,11847.0
1698412959.2816558,11797.0
1698412959.3022504,11844.0
1698412959.3228457,11893.0
1698412959.3434405,11847.0
1698412959.3640351,11868.0
1698412959.38463,11849.0
1698412959.405225,11795.0
1698412959.4258199,11833.0
1698412959.4464147,11861.0
1698412959.4670098,11834.0
1698412959.4876044,11841.0
1698412959.5081997,11848.0
1698412959.5287945,11844.0
1698412959.5493891,11843.0
1698412959.569984,11841.0
1698412959.5905788,11847.0
1698412959.6111739,11797.0
1698412959.6317687,11844.0
1698412959.6523635,11843.0
1698412959.6729586,11887.0
1698412959.6935537,11853.0
1698412959.7141483,11864.0
1698412959.734743,11863.0
1698412959.755338,11825.0
1698412959.7759328,11871.0
1698412959.7965279,11874.0
1698412959.8171227,11879.0
1698412959.8377175,11878.0
1698412959.8583126,11890.0
1698412959.8789077,11841.0
1698412959.8995023,11893.0
1698412959.920097,11888.0
1698412959.940692,11898.0
1698412959.9612868,11902.0
1698412959.9818819,11908.0
1698412960.0024767,11860.0
1698412960.0230715,11913.0
1698412960.0436666,11916.0
1698412960.0642617,11929.0
1698412960.0848563,11938.0
1698412960.105451,11910.0
1698412960.126046,11919.0
1698412960.1466408,11930.0
1698412960.1672359,11980.0
1698412960.1878304,11956.0
1698412960.2084255,12005.0
1698412960.2290206,12021.0
1698412960.2496152,11986.0
1698412960.2702103,12026.0
1698412960.290805,12007.0
1698412960.3114,11995.0
1698412960.3319948,11973.0
1698412960.3525898,11952.0
1698412960.3731847,11923.0
1698412960.3937795,11897.0
1698412960.4143746,11824.0
1698412960.4349692,11839.0
1698412960.4555643,11811.0
1698412960.476159,11781.0
1698412960.496754,11719.0
1698412960.5173488,11737.0
1698412960.5379438,11714.0
1698412960.5585387,11661.0
1698412960.5791335,11694.0
1698412960.5997286,11685.0
1698412960.6203232,11686.0
1698412960.6409183,11684.0
1698412960.661513,11688.0
1698412960.682108,11691.0
1698412960.702703,11684.0
1698412960.7232976,11716.0
1698412960.7438927,11716.0
1698412960.7644875,11734.0
1698412960.7850826,11758.0
1698412960.8056772,11775.0
1698412960.8262722,11763.0
1698412960.8468668,11756.0
1698412960.867462,11808.0
1698412960.888057,11808.0
1698412960.9086516,11766.0
1698412960.9292467,11801.0
1698412960.9498415,11783.0
1698412960.9704363,11783.0
1698412960.9910312,11769.0
1698412961.0116262,11721.0
1698412961.0322208,11738.0
1698412961.052816,11743.0
1698412961.073411,11742.0
1698412961.0940056,11696.0
1698412961.1146007,11732.0
1698412961.1351955,11686.0
1698412961.1557903,11718.0
1698412961.1763852,11674.0
1698412961.1969802,11710.0
1698412961.2175748,11706.0
1698412961.23817,11700.0
1698412961.258765,11694.0
1698412961.2793596,11685.0
1698412961.2999547,11542.0
1698412961.3205492,11536.0
1698412961.3411443,11543.0
1698412961.3617392,11507.0
1698412961.382334,11588.0
1698412961.402929,11593.0
1698412961.423524,11616.0
1698412961.444119,11633.0
1698412961.4647136,11649.0
1698412961.4853086,11667.0
1698412961.5059032,11680.0
1698412961.5264983,11639.0
1698412961.5470932,11704.0
1698412961.567688,11634.0
1698412961.588283,11774.0
1698412961.608878,11754.0
1698412961.629473,11542.0
1698412961.6500676,11536.0
1698412961.6706626,11543.0
1698412961.691257,11507.0
1698412961.7118523,11588.0
1698412961.7324471,11593.0
1698412961.753042,11616.0
1698412961.773637,11633.0
1698412961.794232,11649.0
1698412961.814827,11667.0
1698412961.8354216,11680.0
1698412961.8560164,11639.0
1698412961.876611,11704.0
1698412961.8972063,11634.0
1698412961.9178011,11774.0
1698412961.938396,11754.0
1698412961.958991,11759.0
1698412961.9795856,11862.0
1698412962.000181,11777.0
1698412962.0207756,11785.0
1698412962.0413704,11794.0
1698412962.061965,11798.0
1698412962.0825603,11806.0
1698412962.1031551,11805.0
1698412962.12375,11809.0
1698412962.144345,11813.0
1698412962.1649396,11819.0
1698412962.185535,11829.0
1698412962.2061296,11836.0
1698412962.2267244,11835.0
1698412962.247319,11839.0
1698412962.2679143,11851.0
1698412962.2885091,11858.0
1698412962.309104,11866.0
1698412962.329699,11884.0
1698412962.3502936,11892.0
1698412962.370889,11905.0
1698412962.3914835,11920.0
1698412962.4120784,11933.0
1698412962.432673,11954.0
1698412962.453268,11929.0
1698412962.4738631,11971.0
1698412962.494458,11982.0
1698412962.5150528,11980.0
1698412962.5356476,11975.0
1698412962.556243,11952.0
1698412962.5768373,11944.0
1698412962.5974324,11921.0
1698412962.6180272,11891.0
1698412962.638622,11863.0
1698412962.6592171,11834.0
1698412962.679812,11803.0
1698412962.7004068,11777.0
1698412962.7210016,11679.0
1698412962.7415967,11731.0
1698412962.7621913,11712.0
1698412962.7827864,11705.0
1698412962.8033812,11689.0
1698412962.823976,11687.0
1698412962.844571,11687.0
1698412962.865166,11647.0
1698412962.8857608,11694.0
1698412962.9063556,11698.0
1698412962.9269507,11714.0
1698412962.9475455,11733.0
1698412962.9681404,11754.0
1698412962.9887352,11781.0
1698412963.00933,11812.0
1698412963.029925,11831.0
1698412963.0505197,11850.0
1698412963.0711148,11864.0
1698412963.0917096,11881.0
1698412963.1123044,11893.0
1698412963.1328995,11855.0
1698412963.1534944,11899.0
1698412963.1740892,11904.0
1698412963.194684,11902.0
1698412963.215279,11898.0
1698412963.2358737,11891.0
1698412963.2564688,11890.0
1698412963.2770636,11894.0
1698412963.2976584,11898.0
1698412963.3182535,11894.0
1698412963.3388484,11890.0
1698412963.3594432,11886.0
1698412963.380038,11884.0
1698412963.400633,11880.0
1698412963.4212277,11840.0
1698412963.4418228,11883.0
1698412963.4624174,11875.0
1698412963.4830124,11877.0
1698412963.5036075,11867.0
1698412963.5242023,11862.0
1698412963.5447972,11854.0
1698412963.565392,11849.0
1698412963.5859869,11843.0
1698412963.6065817,11840.0
1698412963.6271768,11829.0
1698412963.6477716,11827.0
1698412963.6683664,11831.0
1698412963.6889615,11802.0
1698412963.709556,11831.0
1698412963.7301512,11855.0
1698412963.750746,11827.0
1698412963.7713408,11847.0
1698412963.7919357,11860.0
1698412963.8125308,11861.0
1698412963.8331256,11861.0
1698412963.8537204,11803.0
1698412963.8743155,11864.0
1698412963.89491,11867.0
1698412963.9155052,11839.0
1698412963.9361,11871.0
1698412963.9566948,11846.0
1698412963.9772897,11802.0
1698412963.9978848,11809.0
1698412964.0184796,11820.0
1698412964.0390744,11790.0
1698412964.0596695,11828.0
1698412964.080264,11794.0
1698412964.1008592,11794.0
1698412964.121454,11849.0
1698412964.1420488,11799.0
1698412964.162644,11846.0
1698412964.1832383,11839.0
1698412964.2038336,11792.0
1698412964.2244284,11827.0
1698412964.2450233,11826.0
1698412964.265618,11822.0
1698412964.2862132,11826.0
1698412964.306808,11792.0
1698412964.3274028,11836.0
1698412964.347998,11839.0
1698412964.3685923,11801.0
1698412964.3891876,11803.0
1698412964.4097824,11851.0
1698412964.4303772,11849.0
1698412964.450972,11856.0
1698412964.4715672,11821.0
1698412964.4921622,11864.0
1698412964.5127568,11866.0
1698412964.533352,11827.0
1698412964.5539463,11882.0
1698412964.5745416,11894.0
1698412964.5951364,11896.0
1698412964.6157312,11831.0
1698412964.636326,11851.0
1698412964.6569211,11825.0
1698412964.6775162,11802.0
1698412964.6981108,11780.0
1698412964.7187057,11717.0
1698412964.7393003,11745.0
1698412964.7598956,11731.0
1698412964.7804902,11714.0
1698412964.8010852,11709.0
1698412964.82168,11707.0
1698412964.842275,11712.0
1698412964.8628702,11729.0
1698412964.8834648,11713.0
1698412964.9040596,11791.0
1698412964.9246542,11778.0
1698412964.9452496,11783.0
1698412964.9658442,11800.0
1698412964.9864392,11790.0
1698412965.007034,11829.0
1698412965.027629,11826.0
1698412965.0482242,11822.0
1698412965.0688188,11781.0
1698412965.0894136,11824.0
1698412965.1100082,11829.0
1698412965.1306036,11805.0
1698412965.1511981,11827.0
1698412965.1717932,11838.0
1698412965.1923883,11834.0
1698412965.212983,11854.0
1698412965.233578,11830.0
1698412965.2541726,11778.0
1698412965.2747676,11783.0
1698412965.2953622,11800.0
1698412965.3159573,11790.0
1698412965.3365521,11829.0
1698412965.3571472,11826.0
1698412965.377742,11822.0
1698412965.398337,11781.0
1698412965.418932,11824.0
1698412965.4395266,11829.0
1698412965.4601216,11805.0
1698412965.4807165,11827.0
1698412965.5013113,11838.0
1698412965.5219061,11834.0
1698412965.5425012,11854.0
1698412965.563096,11830.0
1698412965.583691,11822.0
1698412965.604286,11826.0
1698412965.6248806,11822.0
1698412965.6454756,11815.0
1698412965.6660705,11809.0
1698412965.6866653,11808.0
1698412965.7072606,11764.0
1698412965.7278552,11799.0
1698412965.74845,11789.0
1698412965.7690449,11743.0
1698412965.78964,11769.0
1698412965.8102345,11752.0
1698412965.8308296,11732.0
1698412965.8514242,11706.0
1698412965.8720193,11684.0
1698412965.8926146,11665.0
1698412965.913209,11644.0
1698412965.933804,11617.0
1698412965.9543989,11603.0
1698412965.9749937,11595.0
1698412965.9955885,11590.0
1698412966.0161836,11589.0
1698412966.0367782,11578.0
1698412966.0573733,11596.0
1698412966.0779686,11594.0
1698412966.098563,11582.0
1698412966.119158,11572.0
1698412966.1397529,11560.0
1698412966.1603477,11546.0
1698412966.1809425,11550.0
1698412966.2015376,11565.0
1698412966.2221322,11570.0
1698412966.2427273,11584.0
1698412966.2633226,11584.0
1698412966.283917,11599.0
1698412966.304512,11597.0
1698412966.3251069,11608.0
1698412966.3457017,11609.0
1698412966.3662965,11612.0
1698412966.3868914,11608.0
1698412966.4074864,11607.0
1698412966.4280813,11607.0
1698412966.448676,11603.0
1698412966.469271,11600.0
1698412966.489866,11599.0
1698412966.5104606,11594.0
1698412966.5310557,11605.0
1698412966.5516505,11601.0
1698412966.5722454,11575.0
1698412966.5928404,11621.0
1698412966.6134353,11618.0
1698412966.63403,11634.0
1698412966.654625,11647.0
1698412966.67522,11649.0
1698412966.6958146,11659.0
1698412966.7164097,11672.0
1698412966.7370048,11685.0
1698412966.7575994,11702.0
1698412966.7781944,11676.0
1698412966.7987893,11743.0
1698412966.819384,11761.0
1698412966.839979,11750.0
1698412966.860574,11811.0
1698412966.8811686,11832.0
1698412966.9017637,11727.0
1698412966.9223588,11728.0
1698412966.9429533,11731.0
1698412966.9635484,11695.0
1698412966.984143,11738.0
1698412967.004738,11746.0
1698412967.025333,11751.0
1698412967.0459275,11762.0
1698412967.0665226,11773.0
1698412967.0871177,11788.0
1698412967.1077125,11807.0
1698412967.1283073,11819.0
1698412967.1489024,11819.0
1698412967.169497,11847.0
1698412967.190092,11806.0
1698412967.210687,11849.0
1698412967.2312815,11727.0
1698412967.2518766,11728.0
1698412967.2724717,11731.0
1698412967.2930665,11695.0
1698412967.3136613,11738.0
1698412967.3342564,11746.0
1698412967.354851,11751.0
1698412967.375446,11762.0
1698412967.396041,11773.0
1698412967.4166355,11788.0
1698412967.4372308,11807.0
1698412967.4578257,11819.0
1698412967.4784205,11819.0
1698412967.4990153,11847.0
1698412967.5196102,11806.0
1698412967.540205,11849.0
1698412967.5608,11862.0
1698412967.5813947,11837.0
1698412967.6019895,11844.0
1698412967.6225848,11856.0
1698412967.6431794,11851.0
1698412967.6637745,11803.0
1698412967.6843693,11810.0
1698412967.7049642,11847.0
1698412967.725559,11837.0
1698412967.746154,11828.0
1698412967.7667487,11837.0
1698412967.7873437,11830.0
1698412967.8079388,11839.0
1698412967.8285334,11821.0
1698412967.8491285,11820.0
1698412967.8697233,11784.0
1698412967.8903182,11819.0
1698412967.910913,11824.0
1698412967.931508,11830.0
1698412967.952103,11826.0
1698412967.9726977,11821.0
1698412967.9932928,11824.0
1698412968.0138876,11821.0
1698412968.0344825,11811.0
1698412968.0550773,11803.0
1698412968.0756721,11792.0
1698412968.096267,11739.0
1698412968.1168618,11732.0
1698412968.137457,11764.0
1698412968.1580517,11754.0
1698412968.1786466,11709.0
1698412968.1992416,11707.0
1698412968.2198365,11746.0
1698412968.240431,11747.0
1698412968.261026,11759.0
1698412968.281621,11765.0
1698412968.3022158,11779.0
1698412968.322811,11784.0
1698412968.3434057,11792.0
1698412968.3640006,11797.0
1698412968.3845956,11806.0
1698412968.4051905,11812.0
1698412968.425785,11816.0
1698412968.44638,11828.0
1698412968.4669752,11834.0
1698412968.4875698,11840.0
1698412968.508165,11841.0
1698412968.5287597,11828.0
1698412968.5493546,11886.0
1698412968.5699496,11895.0
1698412968.5905445,11908.0
1698412968.611139,11881.0
1698412968.631734,11919.0
1698412968.652329,11937.0
1698412968.6729238,11972.0
1698412968.6935189,11971.0
1698412968.7141135,11954.0
1698412968.7347085,11966.0
1698412968.7553036,11986.0
1698412968.7758982,11948.0
1698412968.796493,11979.0
1698412968.817088,11968.0
1698412968.837683,11984.0
1698412968.8582778,11980.0
1698412968.8788729,11886.0
1698412968.8994675,11895.0
1698412968.9200625,11908.0
1698412968.9406576,11881.0
1698412968.9612522,11919.0
1698412968.9818473,11937.0
1698412969.002442,11972.0
1698412969.023037,11971.0
1698412969.0436318,11954.0
1698412969.0642269,11966.0
1698412969.0848215,11986.0
1698412969.1054165,11948.0
1698412969.1260116,11979.0
1698412969.1466062,11968.0
1698412969.1672013,11984.0
1698412969.1877959,11980.0
1698412969.208391,12007.0
1698412969.2289858,11975.0
1698412969.2495806,11982.0
1698412969.2701755,11936.0
1698412969.2907705,11977.0
1698412969.3113651,12000.0
1698412969.3319602,11959.0
1698412969.3525553,12007.0
1698412969.3731499,12015.0
1698412969.393745,12019.0
1698412969.4143398,12025.0
1698412969.4349346,12028.0
1698412969.4555295,12029.0
1698412969.4761245,12032.0
1698412969.4967191,12035.0
1698412969.5173142,12044.0
1698412969.5379093,12045.0
1698412969.5585039,12050.0
1698412969.579099,12059.0
1698412969.5996938,12054.0
1698412969.6202886,12056.0
1698412969.6408834,12056.0
1698412969.6614785,12048.0
1698412969.6820734,12048.0
1698412969.7026682,12044.0
1698412969.7232633,12037.0
1698412969.7438579,12034.0
1698412969.764453,12028.0
1698412969.7850475,12021.0
1698412969.8056426,12017.0
1698412969.8262374,12016.0
1698412969.8468325,12013.0
1698412969.8674273,12011.0
1698412969.8880222,12008.0
1698412969.908617,12010.0
1698412969.9292119,12004.0
1698412969.949807,12002.0
1698412969.9704015,12003.0
1698412969.9909966,11997.0
1698412970.0115914,11959.0
1698412970.0321863,11996.0
1698412970.0527813,11956.0
1698412970.0733762,12002.0
1698412970.093971,12007.0
1698412970.1145658,12013.0
1698412970.135161,12023.0
1698412970.1557555,12024.0
1698412970.1763506,11974.0
1698412970.1969457,11958.0
1698412970.2175403,11975.0
1698412970.2381353,11955.0
1698412970.2587302,11928.0
1698412970.279325,11904.0
1698412970.2999198,11887.0
1698412970.320515,11864.0
1698412970.3411095,11848.0
1698412970.3617046,11831.0
1698412970.3822994,11820.0
1698412970.4028943,11806.0
1698412970.4234893,11799.0
1698412970.444084,11791.0
1698412970.464679,11780.0
1698412970.4852738,11779.0
1698412970.505869,11770.0
1698412970.5264635,11637.0
1698412970.5470586,11627.0
1698412970.5676534,11610.0
1698412970.5882483,11612.0
1698412970.6088433,11598.0
1698412970.629438,11593.0
1698412970.650033,11592.0
1698412970.6706278,11592.0
1698412970.691223,11530.0
1698412970.7118177,11580.0
1698412970.7324126,11557.0
1698412970.7530072,11613.0
1698412970.7736022,11567.0
1698412970.7941973,11507.0
1698412970.814792,11554.0
1698412970.835387,11557.0
1698412970.8559818,11637.0
1698412970.876577,11627.0
1698412970.8971717,11610.0
1698412970.9177663,11612.0
1698412970.9383612,11598.0
1698412970.9589562,11593.0
1698412970.979551,11592.0
1698412971.000146,11592.0
1698412971.020741,11530.0
1698412971.0413356,11580.0
1698412971.061931,11557.0
1698412971.0825257,11613.0
1698412971.1031203,11567.0
1698412971.1237152,11507.0
1698412971.1443102,11554.0
1698412971.164905,11557.0
1698412971.1855,11534.0
1698412971.206095,11543.0
1698412971.2266898,11539.0
1698412971.247285,11535.0
1698412971.2678797,11518.0
1698412971.2884743,11513.0
1698412971.3090692,11459.0
1698412971.3296642,11493.0
1698412971.350259,11446.0
1698412971.370854,11446.0
1698412971.391449,11397.0
1698412971.4120438,11428.0
1698412971.432639,11381.0
1698412971.4532337,11423.0
1698412971.4738283,11430.0
1698412971.4944232,11440.0
1698412971.515018,11445.0
1698412971.535613,11462.0
1698412971.556208,11479.0
1698412971.5768027,11488.0
1698412971.5973978,11491.0
1698412971.6179929,11461.0
1698412971.6385875,11503.0
1698412971.6591823,11509.0
1698412971.6797771,11511.0
1698412971.700372,11515.0
1698412971.720967,11523.0
1698412971.7415621,11511.0
1698412971.7621567,11515.0
1698412971.7827518,11482.0
1698412971.8033466,11518.0
1698412971.8239415,11515.0
1698412971.8445363,11511.0
1698412971.8651311,11505.0
1698412971.885726,11491.0
1698412971.906321,11440.0
1698412971.9269161,11465.0
1698412971.9475107,11455.0
1698412971.9681058,11446.0
1698412971.9887006,11443.0
1698412972.0092955,11431.0
1698412972.0298903,11420.0
1698412972.0504851,11432.0
1698412972.07108,11423.0
1698412972.091675,11424.0
1698412972.1122699,11390.0
1698412972.1328647,11431.0
1698412972.1534598,11431.0
1698412972.1740544,11439.0
1698412972.1946495,11434.0
1698412972.2152443,11447.0
1698412972.2358391,11402.0
1698412972.256434,11445.0
1698412972.277029,11444.0
1698412972.2976239,11415.0
1698412972.3182187,11452.0
1698412972.3388138,11449.0
1698412972.3594084,11454.0
1698412972.3800035,11452.0
1698412972.4005983,11435.0
1698412972.4211931,11437.0
1698412972.4417882,11382.0
1698412972.462383,11414.0
1698412972.4829779,11397.0
1698412972.5035727,11400.0
1698412972.5241675,11395.0
1698412972.5447624,11385.0
1698412972.5653574,11393.0
1698412972.5859523,11390.0
1698412972.606547,11350.0
1698412972.6271422,11398.0
1698412972.6477368,11401.0
1698412972.6683319,11402.0
1698412972.6889267,11407.0
1698412972.7095215,11393.0
1698412972.7301164,11377.0
1698412972.7507114,11338.0
1698412972.771306,11323.0
1698412972.791901,11357.0
1698412972.8124962,11346.0
1698412972.8330908,11340.0
1698412972.8536859,11332.0
1698412972.8742807,11327.0
1698412972.8948755,11312.0
1698412972.9154704,11306.0
1698412972.9360654,11293.0
1698412972.9566603,11237.0
1698412972.977255,11215.0
1698412972.9978502,11245.0
1698412973.0184448,11229.0
1698412973.0390399,11207.0
1698412973.0596347,11188.0
1698412973.0802295,11139.0
1698412973.1008244,11173.0
1698412973.1214194,11125.0
1698412973.1420143,11156.0
1698412973.162609,11114.0
1698412973.1832042,11148.0
1698412973.2037988,11095.0
1698412973.2243938,11134.0
1698412973.2449882,11127.0
1698412973.2655835,11083.0
1698412973.2861784,11116.0
1698412973.3067732,11066.0
1698412973.3273683,11109.0
1698412973.347963,11094.0
1698412973.3685582,11080.0
1698412973.3891528,11043.0
1698412973.4097478,11077.0
1698412973.4303422,11073.0
1698412973.4509375,11065.0
1698412973.4715326,11054.0
1698412973.4921272,11003.0
1698412973.5127223,11022.0
1698412973.533317,10974.0
1698412973.5539122,10992.0
1698412973.5745068,10978.0
1698412973.5951018,10964.0
1698412973.6156962,10946.0
1698412973.6362915,10941.0
1698412973.6568866,10927.0
1698412973.6774812,10919.0
1698412973.6980762,10917.0
1698412973.718671,10910.0
1698412973.7392662,10907.0
1698412973.7598608,10865.0
1698412973.7804556,10896.0
1698412973.8010502,10817.0
1698412973.8216455,10891.0
1698412973.8422403,10847.0
1698412973.8628352,10880.0
1698412973.8834302,10872.0
1698412973.9040248,10878.0
1698412973.9246202,10873.0
1698412973.9452147,10869.0
1698412973.9658096,10827.0
1698412973.9864042,10861.0
1698412974.0069995,10858.0
1698412974.0275943,10856.0
1698412974.0481892,10856.0
1698412974.0687842,10845.0
1698412974.0893788,10796.0
1698412974.1099741,10824.0
1698412974.1305687,10809.0
1698412974.1511636,10691.0
1698412974.1717584,10728.0
1698412974.1923535,10724.0
1698412974.2129483,10731.0
1698412974.2335432,10730.0
1698412974.2541382,10689.0
1698412974.2747328,10731.0
1698412974.295328,10721.0
1698412974.3159225,10721.0
1698412974.3365176,10720.0
1698412974.3571124,10695.0
1698412974.3777072,10696.0
1698412974.3983023,10688.0
1698412974.4188972,10675.0
1698412974.439492,10661.0
1698412974.4600868,10613.0
1698412974.480682,10691.0
1698412974.5012765,10728.0
1698412974.5218716,10724.0
1698412974.5424666,10731.0
1698412974.5630612,10730.0
1698412974.5836563,10689.0
1698412974.6042511,10731.0
1698412974.624846,10721.0
1698412974.6454408,10721.0
1698412974.666036,10720.0
1698412974.6866307,10695.0
1698412974.7072256,10696.0
1698412974.7278206,10688.0
1698412974.7484152,10675.0
1698412974.7690105,10661.0
1698412974.7896051,10613.0
1698412974.8102,10649.0
1698412974.8307948,10648.0
1698412974.85139,10644.0
1698412974.8719847,10747.0
1698412974.8925796,10633.0
1698412974.9131744,10634.0
1698412974.9337692,10624.0
1698412974.9543645,10606.0
1698412974.974959,10620.0
1698412974.995554,10620.0
1698412975.016149,10615.0
1698412975.0367436,10610.0
1698412975.0573387,10613.0
1698412975.0779335,10606.0
1698412975.0985284,10598.0
1698412975.1191232,10595.0
1698412975.1397185,10554.0
1698412975.160313,10590.0
1698412975.180908,10586.0
1698412975.201503,10576.0
1698412975.2220976,10534.0
1698412975.2426927,10529.0
1698412975.2632875,10555.0
1698412975.2838824,10541.0
1698412975.3044772,10531.0
1698412975.3250725,10522.0
1698412975.345667,10513.0
1698412975.366262,10495.0
1698412975.386857,10461.0
1698412975.4074516,10449.0
1698412975.4280467,10488.0
1698412975.4486413,10482.0
1698412975.4692364,10484.0
1698412975.4898312,10480.0
1698412975.510426,10472.0
1698412975.5310209,10438.0
1698412975.551616,10463.0
1698412975.5722108,10470.0
1698412975.5928056,10426.0
1698412975.6134007,10453.0
1698412975.6339953,10455.0
1698412975.6545904,10454.0
1698412975.6751852,10450.0
1698412975.69578,10440.0
1698412975.716375,10448.0
1698412975.73697,10439.0
1698412975.7575648,10438.0
1698412975.7781596,10438.0
1698412975.7987547,10438.0
1698412975.8193493,10428.0
1698412975.8399444,10421.0
1698412975.8605392,10400.0
1698412975.881134,10404.0
1698412975.901729,10391.0
1698412975.922324,10383.0
1698412975.9429188,10373.0
1698412975.9635136,10371.0
1698412975.9841087,10364.0
1698412976.0047033,10363.0
1698412976.0252984,10361.0
1698412976.045893,10354.0
1698412976.066488,10357.0
1698412976.087083,10320.0
1698412976.1076775,10353.0
1698412976.1282728,10349.0
1698412976.1488676,10339.0
1698412976.1694624,10345.0
1698412976.1900573,10297.0
1698412976.2106524,10341.0
1698412976.2312472,10337.0
1698412976.251842,10331.0
1698412976.272437,10329.0
1698412976.2930315,10323.0
1698412976.3136268,10323.0
1698412976.3342216,10320.0
1698412976.3548164,10317.0
1698412976.3754113,10317.0
1698412976.3960063,10311.0
1698412976.4166012,10307.0
1698412976.437196,10296.0
1698412976.457791,10286.0
1698412976.4783854,10247.0
1698412976.4989808,10242.0
1698412976.5195756,10269.0
1698412976.5401704,10261.0
1698412976.5607653,10259.0
1698412976.58136,10254.0
1698412976.6019552,10253.0
1698412976.62255,10250.0
1698412976.6431448,10255.0
1698412976.6637394,10252.0
1698412976.6843348,10252.0
1698412976.7049294,10240.0
1698412976.7255244,10247.0
1698412976.7461195,10238.0
1698412976.766714,10203.0
1698412976.7873092,10202.0
1698412976.807904,10236.0
1698412976.8284988,10235.0
1698412976.8490937,10228.0
1698412976.8696887,10236.0
1698412976.8902833,10230.0
1698412976.9108784,10221.0
1698412976.9314735,10218.0
1698412976.952068,10223.0
1698412976.9726632,10214.0
1698412976.993258,10210.0
1698412977.0138528,10202.0
1698412977.0344477,10198.0
1698412977.0550427,10189.0
1698412977.0756376,10187.0
1698412977.0962324,10113.0
1698412977.1168275,10176.0
1698412977.137422,10178.0
1698412977.1580172,10171.0
1698412977.1786118,10173.0
1698412977.1992068,10176.0
1698412977.2198017,10170.0
1698412977.2403965,10178.0
1698412977.2609918,10168.0
1698412977.2815864,10166.0
1698412977.3021812,10169.0
1698412977.3227758,10155.0
1698412977.3433712,10123.0
1698412977.3639657,10164.0
1698412977.3845608,10165.0
1698412977.4051557,10154.0
1698412977.4257505,10155.0
1698412977.4463458,10158.0
1698412977.4669404,10159.0
1698412977.4875352,10154.0
1698412977.5081298,10151.0
1698412977.5287251,10154.0
1698412977.5493197,10151.0
1698412977.5699148,10130.0
1698412977.5905097,10096.0
1698412977.6111045,10129.0
1698412977.6316998,10122.0
1698412977.6522944,10118.0
1698412977.6728892,10080.0
1698412977.6934838,10045.0
1698412977.714079,10111.0
1698412977.7346737,10112.0
1698412977.7552688,10109.0
1698412977.7758634,10110.0
1698412977.7964585,10110.0
1698412977.8170538,10079.0
1698412977.8376482,10104.0
1698412977.8582432,10106.0
1698412977.8788378,10101.0
1698412977.899433,10106.0
1698412977.9200277,10109.0
1698412977.9406228,10096.0
1698412977.9612176,10100.0
1698412977.9818125,10065.0
