ts(msec),PPG
1698414992010.183,21917.0
1698414992030.612,21912.0
1698414992051.041,21911.0
1698414992071.4695,21912.0
1698414992091.8984,21904.0
1698414992112.3274,21906.0
1698414992132.756,21896.0
1698414992153.1848,21895.0
1698414992173.6135,21899.0
1698414992194.0425,21891.0
1698414992214.4712,21895.0
1698414992234.9,21896.0
1698414992255.3289,21902.0
1698414992275.7576,21898.0
1698414992296.1863,21899.0
1698414992316.6152,21898.0
1698414992337.044,21900.0
1698414992357.473,21903.0
1698414992377.9016,21901.0
1698414992398.3303,21904.0
1698414992418.759,21897.0
1698414992439.188,21903.0
1698414992459.6167,21907.0
1698414992480.0454,21908.0
1698414992500.474,21910.0
1698414992520.903,21912.0
1698414992541.3318,21917.0
1698414992561.7605,21919.0
1698414992582.1897,21907.0
1698414992602.6182,21911.0
1698414992623.0469,21906.0
1698414992643.4758,21905.0
1698414992663.9043,21894.0
1698414992684.3333,21900.0
1698414992704.7622,21886.0
1698414992725.191,21889.0
1698414992745.6196,21879.0
1698414992766.0486,21878.0
1698414992786.4773,21870.0
1698414992806.906,21867.0
1698414992827.335,21871.0
1698414992847.7637,21857.0
1698414992868.1924,21855.0
1698414992888.621,21860.0
1698414992909.05,21857.0
1698414992929.4788,21858.0
1698414992949.9077,21853.0
1698414992970.3364,21848.0
1698414992990.7651,21843.0
1698414993011.1938,21844.0
1698414993031.6228,21835.0
1698414993052.0515,21835.0
1698414993072.4802,21826.0
1698414993092.9092,21823.0
1698414993113.338,21820.0
1698414993133.7666,21821.0
1698414993154.1956,21821.0
1698414993174.6245,21816.0
1698414993195.053,21817.0
1698414993215.482,21818.0
1698414993235.9106,21823.0
1698414993256.3394,21833.0
1698414993276.768,21834.0
1698414993297.197,21838.0
1698414993317.6255,21840.0
1698414993338.0544,21848.0
1698414993358.4834,21844.0
1698414993378.912,21848.0
1698414993399.3408,21851.0
1698414993419.7698,21847.0
1698414993440.1985,21844.0
1698414993460.6272,21848.0
1698414993481.0562,21840.0
1698414993501.4849,21828.0
1698414993521.9136,21830.0
1698414993542.3423,21823.0
1698414993562.7712,21822.0
1698414993583.2,21809.0
1698414993603.629,21801.0
1698414993624.0576,21801.0
1698414993644.4863,21800.0
1698414993664.915,21783.0
1698414993685.344,21775.0
1698414993705.7727,21758.0
1698414993726.2014,21745.0
1698414993746.6304,21736.0
1698414993767.059,21738.0
1698414993787.4878,21731.0
1698414993807.9167,21737.0
1698414993828.3457,21734.0
1698414993848.7742,21733.0
1698414993869.2031,21744.0
1698414993889.6318,21749.0
1698414993910.0603,21748.0
1698414993930.4895,21758.0
1698414993950.9182,21765.0
1698414993971.347,21762.0
1698414993991.776,21770.0
1698414994012.2046,21781.0
1698414994032.6333,21786.0
1698414994053.062,21792.0
1698414994073.491,21796.0
1698414994093.9197,21798.0
1698414994114.3484,21802.0
1698414994134.777,21803.0
1698414994155.206,21803.0
1698414994175.6348,21804.0
1698414994196.0637,21802.0
1698414994216.4924,21799.0
1698414994236.9211,21807.0
1698414994257.35,21801.0
1698414994277.7788,21794.0
1698414994298.2075,21793.0
1698414994318.6365,21789.0
1698414994339.0652,21794.0
1698414994359.494,21785.0
1698414994379.9226,21786.0
1698414994400.3516,21784.0
1698414994420.7805,21780.0
1698414994441.209,21774.0
1698414994461.638,21776.0
1698414994482.067,21772.0
1698414994502.4954,21776.0
1698414994522.9243,21770.0
1698414994543.353,21772.0
1698414994563.7815,21771.0
1698414994584.2107,21769.0
1698414994604.6394,21775.0
1698414994625.068,21765.0
1698414994645.497,21767.0
1698414994665.9258,21772.0
1698414994686.3545,21775.0
1698414994706.7834,21777.0
1698414994727.2122,21770.0
1698414994747.6409,21780.0
1698414994768.0696,21777.0
1698414994788.4983,21781.0
1698414994808.9272,21781.0
1698414994829.356,21779.0
1698414994849.785,21779.0
1698414994870.2136,21777.0
1698414994890.6423,21769.0
1698414994911.0713,21763.0
1698414994931.5,21763.0
1698414994951.9287,21757.0
1698414994972.3577,21752.0
1698414994992.7864,21749.0
1698414995013.215,21749.0
1698414995033.644,21741.0
1698414995054.0728,21734.0
1698414995074.5017,21740.0
1698414995094.9304,21734.0
1698414995115.3591,21736.0
1698414995135.7878,21731.0
1698414995156.2166,21733.0
1698414995176.6455,21739.0
1698414995197.0742,21735.0
1698414995217.503,21735.0
1698414995237.932,21736.0
1698414995258.3606,21738.0
1698414995278.7893,21740.0
1698414995299.2185,21739.0
1698414995319.647,21740.0
1698414995340.0757,21742.0
1698414995360.5046,21748.0
1698414995380.933,21744.0
1698414995401.362,21753.0
1698414995421.791,21749.0
1698414995442.2195,21752.0
1698414995462.6484,21765.0
1698414995483.0774,21755.0
1698414995503.506,21765.0
1698414995523.9348,21761.0
1698414995544.3635,21763.0
1698414995564.7925,21764.0
1698414995585.2212,21771.0
1698414995605.65,21772.0
1698414995626.0789,21776.0
1698414995646.5076,21777.0
1698414995666.9363,21777.0
1698414995687.3652,21775.0
1698414995707.794,21770.0
1698414995728.223,21762.0
1698414995748.6516,21757.0
1698414995769.0803,21755.0
1698414995789.509,21752.0
1698414995809.938,21742.0
1698414995830.3667,21742.0
1698414995850.7954,21736.0
1698414995871.224,21731.0
1698414995891.653,21723.0
1698414995912.0818,21717.0
1698414995932.5105,21716.0
1698414995952.9397,21719.0
1698414995973.3682,21711.0
1698414995993.7969,21713.0
1698414996014.2258,21705.0
1698414996034.6543,21710.0
1698414996055.0833,21704.0
1698414996075.5122,21711.0
1698414996095.941,21708.0
1698414996116.3696,21721.0
1698414996136.7986,21713.0
1698414996157.2273,21714.0
1698414996177.656,21712.0
1698414996198.085,21716.0
1698414996218.5137,21723.0
1698414996238.9424,21721.0
1698414996259.371,21717.0
1698414996279.8,21722.0
1698414996300.2288,21730.0
1698414996320.6577,21721.0
1698414996341.0864,21730.0
1698414996361.5151,21726.0
1698414996381.9438,21735.0
1698414996402.3728,21731.0
1698414996422.8015,21738.0
1698414996443.2302,21737.0
1698414996463.6592,21741.0
1698414996484.088,21736.0
1698414996504.5166,21736.0
1698414996524.9456,21740.0
1698414996545.3745,21742.0
1698414996565.803,21734.0
1698414996586.232,21737.0
1698414996606.6606,21729.0
1698414996627.0894,21727.0
1698414996647.518,21721.0
1698414996667.947,21724.0
1698414996688.3755,21719.0
1698414996708.8044,21717.0
1698414996729.2334,21717.0
1698414996749.662,21713.0
1698414996770.0908,21711.0
1698414996790.5198,21714.0
1698414996810.9485,21721.0
1698414996831.3772,21719.0
1698414996851.8062,21719.0
1698414996872.2349,21719.0
1698414996892.6636,21717.0
1698414996913.0923,21724.0
1698414996933.5212,21726.0
1698414996953.95,21720.0
1698414996974.379,21719.0
1698414996994.8076,21726.0
1698414997015.2363,21726.0
1698414997035.665,21726.0
1698414997056.094,21731.0
1698414997076.5227,21732.0
1698414997096.9514,21732.0
1698414997117.3804,21737.0
1698414997137.809,21738.0
1698414997158.2378,21741.0
1698414997178.6667,21749.0
1698414997199.0957,21750.0
1698414997219.5242,21751.0
1698414997239.9531,21758.0
1698414997260.3818,21756.0
1698414997280.8103,21759.0
1698414997301.2395,21752.0
1698414997321.6682,21757.0
1698414997342.097,21750.0
1698414997362.526,21747.0
1698414997382.9546,21745.0
1698414997403.3833,21745.0
1698414997423.812,21740.0
1698414997444.241,21743.0
1698414997464.6697,21741.0
1698414997485.0984,21735.0
1698414997505.527,21735.0
1698414997525.956,21735.0
1698414997546.3848,21736.0
1698414997566.8137,21743.0
1698414997587.2424,21738.0
1698414997607.6711,21740.0
1698414997628.1,21741.0
1698414997648.5288,21740.0
1698414997668.9575,21752.0
1698414997689.3865,21751.0
1698414997709.8152,21751.0
1698414997730.244,21751.0
1698414997750.6726,21753.0
1698414997771.1016,21750.0
1698414997791.5305,21757.0
1698414997811.959,21752.0
1698414997832.388,21753.0
1698414997852.817,21749.0
1698414997873.2454,21748.0
1698414997893.6743,21749.0
1698414997914.103,21753.0
1698414997934.5315,21742.0
1698414997954.9607,21733.0
1698414997975.3894,21736.0
1698414997995.818,21736.0
1698414998016.247,21738.0
1698414998036.6758,21740.0
1698414998057.1045,21748.0
1698414998077.5334,21757.0
1698414998097.9622,21758.0
1698414998118.3909,21779.0
1698414998138.8196,21782.0
1698414998159.2483,21785.0
1698414998179.6772,21790.0
1698414998200.106,21796.0
1698414998220.535,21797.0
1698414998240.9636,21801.0
1698414998261.3923,21801.0
1698414998281.8213,21803.0
1698414998302.25,21803.0
1698414998322.6787,21806.0
1698414998343.1077,21803.0
1698414998363.5364,21800.0
1698414998383.965,21797.0
1698414998404.394,21800.0
1698414998424.8228,21800.0
1698414998445.2517,21799.0
1698414998465.6804,21799.0
1698414998486.1091,21796.0
1698414998506.5378,21788.0
1698414998526.9666,21788.0
1698414998547.3955,21793.0
1698414998567.8242,21795.0
1698414998588.253,21796.0
1698414998608.682,21798.0
1698414998629.1106,21794.0
1698414998649.5393,21788.0
1698414998669.9685,21788.0
1698414998690.397,21790.0
1698414998710.8257,21780.0
1698414998731.2546,21775.0
1698414998751.683,21775.0
1698414998772.112,21777.0
1698414998792.541,21781.0
1698414998812.9695,21769.0
1698414998833.3984,21775.0
1698414998853.8274,21770.0
1698414998874.256,21768.0
1698414998894.6848,21774.0
1698414998915.1135,21779.0
1698414998935.5425,21787.0
1698414998955.9712,21781.0
1698414998976.4,21787.0
1698414998996.8289,21779.0
1698414999017.2576,21780.0
1698414999037.6863,21776.0
1698414999058.1152,21768.0
1698414999078.544,21769.0
1698414999098.973,21769.0
1698414999119.4016,21773.0
1698414999139.8303,21763.0
1698414999160.259,21770.0
1698414999180.688,21765.0
1698414999201.1167,21760.0
1698414999221.5454,21771.0
1698414999241.974,21764.0
1698414999262.403,21771.0
1698414999282.8318,21765.0
1698414999303.2605,21769.0
1698414999323.6897,21767.0
1698414999344.1182,21764.0
1698414999364.5469,21766.0
1698414999384.9758,21768.0
1698414999405.4043,21772.0
1698414999425.8333,21769.0
1698414999446.2622,21764.0
1698414999466.691,21765.0
1698414999487.1196,21776.0
1698414999507.5486,21763.0
1698414999527.9773,21777.0
1698414999548.406,21774.0
1698414999568.835,21775.0
1698414999589.2637,21784.0
1698414999609.6924,21779.0
1698414999630.121,21786.0
1698414999650.55,21785.0
1698414999670.9788,21785.0
1698414999691.4077,21790.0
1698414999711.8364,21791.0
1698414999732.2651,21791.0
1698414999752.6938,21793.0
1698414999773.1228,21792.0
1698414999793.5515,21795.0
1698414999813.9802,21791.0
1698414999834.4092,21793.0
1698414999854.838,21791.0
1698414999875.2666,21783.0
1698414999895.6956,21784.0
1698414999916.1245,21784.0
1698414999936.553,21791.0
1698414999956.982,21810.0
1698414999977.4106,21817.0
1698414999997.8394,21820.0
1698415000018.268,21819.0
1698415000038.697,21811.0
1698415000059.1255,21815.0
1698415000079.5544,21810.0
1698415000099.9834,21811.0
1698415000120.412,21806.0
1698415000140.8408,21803.0
1698415000161.2698,21792.0
1698415000181.6985,21781.0
1698415000202.1272,21771.0
1698415000222.5562,21769.0
1698415000242.9849,21780.0
1698415000263.4136,21797.0
1698415000283.8423,21810.0
1698415000304.2712,21817.0
1698415000324.7,21812.0
1698415000345.129,21801.0
1698415000365.5576,21804.0
1698415000385.9863,21807.0
1698415000406.415,21814.0
1698415000426.844,21817.0
1698415000447.2727,21816.0
1698415000467.7014,21818.0
1698415000488.1304,21800.0
1698415000508.559,21794.0
1698415000528.9878,21777.0
1698415000549.4167,21785.0
1698415000569.8457,21781.0
1698415000590.2742,21784.0
1698415000610.7031,21779.0
1698415000631.1318,21776.0
1698415000651.5603,21768.0
1698415000671.9895,21762.0
1698415000692.4182,21762.0
1698415000712.847,21757.0
1698415000733.276,21754.0
1698415000753.7046,21753.0
1698415000774.1333,21740.0
1698415000794.562,21742.0
1698415000814.991,21737.0
1698415000835.4197,21734.0
1698415000855.8484,21723.0
1698415000876.277,21719.0
1698415000896.706,21710.0
1698415000917.1348,21704.0
1698415000937.5637,21697.0
1698415000957.9924,21696.0
1698415000978.4211,21693.0
1698415000998.85,21699.0
1698415001019.2788,21695.0
1698415001039.7075,21687.0
1698415001060.1365,21679.0
1698415001080.5652,21668.0
1698415001100.994,21661.0
1698415001121.4226,21651.0
1698415001141.8516,21648.0
1698415001162.2805,21649.0
1698415001182.709,21646.0
1698415001203.138,21642.0
1698415001223.567,21647.0
1698415001243.9954,21650.0
1698415001264.4243,21649.0
1698415001284.853,21640.0
1698415001305.2815,21634.0
1698415001325.7107,21627.0
1698415001346.1394,21626.0
1698415001366.568,21618.0
1698415001386.997,21625.0
1698415001407.4258,21628.0
1698415001427.8545,21624.0
1698415001448.2834,21635.0
1698415001468.7122,21634.0
1698415001489.1409,21627.0
1698415001509.5696,21629.0
1698415001529.9983,21621.0
1698415001550.4272,21619.0
1698415001570.856,21621.0
1698415001591.285,21628.0
1698415001611.7136,21631.0
1698415001632.1423,21644.0
1698415001652.5713,21633.0
1698415001673.0,21634.0
1698415001693.4287,21645.0
1698415001713.8577,21638.0
1698415001734.2864,21646.0
1698415001754.715,21641.0
1698415001775.144,21638.0
1698415001795.5728,21629.0
1698415001816.0017,21621.0
1698415001836.4304,21628.0
1698415001856.8591,21620.0
1698415001877.2878,21616.0
1698415001897.7166,21623.0
1698415001918.1455,21625.0
1698415001938.5742,21626.0
1698415001959.003,21620.0
1698415001979.432,21617.0
1698415001999.8606,21617.0
1698415002020.2893,21614.0
1698415002040.7185,21617.0
1698415002061.147,21617.0
1698415002081.5757,21618.0
1698415002102.0046,21619.0
1698415002122.433,21621.0
1698415002142.862,21622.0
1698415002163.291,21629.0
1698415002183.7195,21631.0
1698415002204.1484,21643.0
1698415002224.5774,21642.0
1698415002245.006,21642.0
1698415002265.4348,21646.0
1698415002285.8635,21643.0
1698415002306.2925,21643.0
1698415002326.7212,21647.0
1698415002347.15,21656.0
1698415002367.5789,21659.0
1698415002388.0076,21663.0
1698415002408.4363,21658.0
1698415002428.8652,21652.0
1698415002449.294,21645.0
1698415002469.723,21645.0
1698415002490.1516,21640.0
1698415002510.5803,21635.0
1698415002531.009,21631.0
1698415002551.438,21629.0
1698415002571.8667,21623.0
1698415002592.2954,21620.0
1698415002612.724,21623.0
1698415002633.153,21615.0
1698415002653.5818,21623.0
1698415002674.0105,21625.0
1698415002694.4397,21618.0
1698415002714.8682,21624.0
1698415002735.2969,21614.0
1698415002755.7258,21615.0
1698415002776.1543,21618.0
1698415002796.5833,21615.0
1698415002817.0122,21620.0
1698415002837.441,21614.0
1698415002857.8696,21613.0
1698415002878.2986,21611.0
1698415002898.7273,21611.0
1698415002919.156,21618.0
1698415002939.585,21629.0
1698415002960.0137,21623.0
1698415002980.4424,21620.0
1698415003000.871,21630.0
1698415003021.3,21630.0
1698415003041.7288,21626.0
1698415003062.1577,21637.0
1698415003082.5864,21628.0
1698415003103.0151,21624.0
1698415003123.4438,21616.0
1698415003143.8728,21615.0
1698415003164.3015,21615.0
1698415003184.7302,21617.0
1698415003205.1592,21615.0
1698415003225.588,21608.0
1698415003246.0166,21610.0
1698415003266.4456,21608.0
1698415003286.8745,21616.0
1698415003307.303,21605.0
1698415003327.732,21608.0
1698415003348.1606,21604.0
1698415003368.5894,21596.0
1698415003389.018,21597.0
1698415003409.447,21599.0
1698415003429.8755,21587.0
1698415003450.3044,21586.0
1698415003470.7334,21587.0
1698415003491.162,21587.0
1698415003511.5908,21585.0
1698415003532.0198,21584.0
1698415003552.4485,21573.0
1698415003572.8772,21579.0
1698415003593.3062,21578.0
1698415003613.7349,21570.0
1698415003634.1636,21574.0
1698415003654.5923,21577.0
1698415003675.0212,21573.0
1698415003695.45,21585.0
1698415003715.879,21581.0
1698415003736.3076,21586.0
1698415003756.7363,21578.0
1698415003777.165,21586.0
1698415003797.594,21587.0
1698415003818.0227,21582.0
1698415003838.4514,21592.0
1698415003858.8804,21590.0
1698415003879.309,21589.0
1698415003899.7378,21589.0
1698415003920.1667,21592.0
1698415003940.5957,21592.0
1698415003961.0242,21591.0
1698415003981.4531,21594.0
1698415004001.8818,21600.0
1698415004022.3103,21605.0
1698415004042.7395,21604.0
1698415004063.1682,21599.0
1698415004083.597,21605.0
1698415004104.026,21613.0
1698415004124.4546,21617.0
1698415004144.8833,21629.0
1698415004165.312,21633.0
1698415004185.741,21646.0
1698415004206.1697,21662.0
1698415004226.5984,21676.0
1698415004247.027,21694.0
1698415004267.456,21701.0
1698415004287.8848,21721.0
1698415004308.3137,21730.0
1698415004328.7424,21743.0
1698415004349.1711,21756.0
1698415004369.6,21766.0
1698415004390.0288,21775.0
1698415004410.4575,21786.0
1698415004430.8865,21783.0
1698415004451.3152,21794.0
1698415004471.744,21792.0
1698415004492.1726,21797.0
1698415004512.6016,21798.0
1698415004533.0305,21797.0
1698415004553.459,21802.0
1698415004573.888,21794.0
1698415004594.317,21796.0
1698415004614.7454,21791.0
1698415004635.1743,21791.0
1698415004655.603,21792.0
1698415004676.0315,21799.0
1698415004696.4607,21800.0
1698415004716.8894,21814.0
1698415004737.318,21824.0
1698415004757.747,21832.0
1698415004778.1758,21842.0
1698415004798.6045,21859.0
1698415004819.0334,21866.0
1698415004839.4622,21877.0
1698415004859.8909,21984.0
1698415004880.3196,21977.0
1698415004900.7483,21978.0
1698415004921.1772,21970.0
1698415004941.606,21969.0
1698415004962.035,21954.0
1698415004982.4636,21961.0
1698415005002.8923,21962.0
1698415005023.3213,21967.0
1698415005043.75,21975.0
1698415005064.1787,21977.0
1698415005084.6077,21982.0
1698415005105.0364,21980.0
1698415005125.465,21968.0
1698415005145.894,21976.0
1698415005166.3228,21972.0
1698415005186.7517,21984.0
1698415005207.1804,21977.0
1698415005227.6091,21978.0
1698415005248.0378,21970.0
1698415005268.4666,21969.0
1698415005288.8955,21954.0
1698415005309.3242,21961.0
1698415005329.753,21962.0
1698415005350.182,21967.0
1698415005370.6106,21975.0
1698415005391.0393,21977.0
1698415005411.4685,21982.0
1698415005431.897,21980.0
1698415005452.3257,21968.0
1698415005472.7546,21976.0
1698415005493.183,21972.0
1698415005513.612,21967.0
1698415005534.041,21965.0
1698415005554.4695,21957.0
1698415005574.8984,21932.0
1698415005595.3274,21934.0
1698415005615.756,21935.0
1698415005636.1848,21933.0
1698415005656.6135,21925.0
1698415005677.0425,21921.0
1698415005697.4712,21923.0
1698415005717.9,21918.0
1698415005738.3289,21911.0
1698415005758.7576,21908.0
1698415005779.1863,21893.0
1698415005799.6152,21892.0
1698415005820.044,21896.0
1698415005840.473,21889.0
1698415005860.9016,21881.0
1698415005881.3303,21875.0
1698415005901.759,21877.0
1698415005922.188,21864.0
1698415005942.6167,21849.0
1698415005963.0454,21845.0
1698415005983.474,21840.0
1698415006003.903,21834.0
1698415006024.3318,21832.0
1698415006044.7605,21823.0
1698415006065.1897,21821.0
1698415006085.6182,21816.0
1698415006106.0469,21816.0
1698415006126.4758,21806.0
1698415006146.9043,21808.0
1698415006167.3333,21799.0
1698415006187.7622,21803.0
1698415006208.191,21815.0
1698415006228.6196,21824.0
1698415006249.0486,21824.0
1698415006269.4773,21825.0
1698415006289.906,21827.0
1698415006310.335,21834.0
1698415006330.7637,21838.0
1698415006351.1924,21844.0
1698415006371.621,21850.0
1698415006392.05,21853.0
1698415006412.4788,21861.0
1698415006432.9077,21859.0
1698415006453.3364,21872.0
1698415006473.7651,21881.0
1698415006494.1938,21883.0
1698415006514.6228,21886.0
1698415006535.0515,21896.0
1698415006555.4802,21894.0
1698415006575.9092,21901.0
1698415006596.338,21886.0
1698415006616.7666,21884.0
1698415006637.1956,21882.0
1698415006657.6245,21877.0
1698415006678.053,21879.0
1698415006698.482,21890.0
1698415006718.9106,21895.0
1698415006739.3394,21909.0
1698415006759.768,21908.0
1698415006780.197,21913.0
1698415006800.6255,21917.0
1698415006821.0544,21923.0
1698415006841.4834,21918.0
1698415006861.912,21920.0
1698415006882.3408,21916.0
1698415006902.7698,21909.0
1698415006923.1985,21909.0
1698415006943.6272,21910.0
1698415006964.0562,21902.0
1698415006984.4849,21900.0
1698415007004.9136,21900.0
1698415007025.3423,21893.0
1698415007045.7712,21891.0
1698415007066.2,21897.0
1698415007086.629,21901.0
1698415007107.0576,21907.0
1698415007127.4863,21922.0
1698415007147.915,21926.0
1698415007168.344,21931.0
1698415007188.7727,21933.0
1698415007209.2014,21935.0
1698415007229.6304,21928.0
1698415007250.059,21926.0
1698415007270.4878,21922.0
1698415007290.9167,21918.0
1698415007311.3457,21919.0
1698415007331.7742,21915.0
1698415007352.2031,21913.0
1698415007372.6318,21915.0
1698415007393.0603,21913.0
1698415007413.4895,21919.0
1698415007433.9182,21916.0
1698415007454.347,21920.0
1698415007474.776,21917.0
1698415007495.2046,21924.0
1698415007515.6333,21935.0
1698415007536.062,21942.0
1698415007556.491,21948.0
1698415007576.9197,21950.0
1698415007597.3484,21950.0
1698415007617.777,21957.0
1698415007638.206,21958.0
1698415007658.6348,21964.0
1698415007679.0637,21972.0
1698415007699.4924,21973.0
1698415007719.9211,21974.0
1698415007740.35,21975.0
1698415007760.7788,21972.0
1698415007781.2075,21976.0
1698415007801.6365,21972.0
1698415007822.0652,21975.0
1698415007842.494,21980.0
1698415007862.9226,21972.0
1698415007883.3516,21958.0
1698415007903.7805,21961.0
1698415007924.209,21947.0
1698415007944.638,21932.0
1698415007965.067,21933.0
1698415007985.4954,21929.0
1698415008005.9243,21932.0
1698415008026.353,21934.0
1698415008046.7815,21932.0
1698415008067.2107,21932.0
1698415008087.6394,21934.0
1698415008108.068,21936.0
1698415008128.497,21942.0
1698415008148.9258,21944.0
1698415008169.3545,21950.0
1698415008189.7834,21955.0
1698415008210.2122,21950.0
1698415008230.6409,21947.0
1698415008251.0696,21952.0
1698415008271.4983,21952.0
1698415008291.9272,21953.0
1698415008312.356,21950.0
1698415008332.785,21951.0
1698415008353.2136,21953.0
1698415008373.6423,21950.0
1698415008394.0713,21951.0
1698415008414.5,21950.0
1698415008434.9287,21952.0
1698415008455.3577,21946.0
1698415008475.7864,21951.0
1698415008496.215,21951.0
1698415008516.644,21950.0
1698415008537.0728,21954.0
1698415008557.5017,21947.0
1698415008577.9304,21952.0
1698415008598.3591,21926.0
1698415008618.7878,21915.0
1698415008639.2166,21895.0
1698415008659.6455,21908.0
1698415008680.0742,21891.0
1698415008700.503,21876.0
1698415008720.932,21893.0
1698415008741.3606,21885.0
1698415008761.7893,21888.0
1698415008782.2185,21888.0
1698415008802.647,21889.0
1698415008823.0757,21893.0
1698415008843.5046,21889.0
1698415008863.933,21895.0
1698415008884.362,21894.0
1698415008904.791,21893.0
1698415008925.2195,21899.0
1698415008945.6484,21900.0
1698415008966.0774,21894.0
1698415008986.506,21902.0
1698415009006.9348,21894.0
1698415009027.3635,21894.0
1698415009047.7925,21895.0
1698415009068.2212,21896.0
1698415009088.65,21904.0
1698415009109.0789,21906.0
1698415009129.5076,21904.0
1698415009149.9363,21908.0
1698415009170.3652,21911.0
1698415009190.794,21920.0
1698415009211.223,21918.0
1698415009231.6516,21919.0
1698415009252.0803,21926.0
1698415009272.509,21924.0
1698415009292.938,21923.0
1698415009313.3667,21914.0
1698415009333.7954,21910.0
1698415009354.224,21909.0
1698415009374.653,21891.0
1698415009395.0818,21886.0
1698415009415.5105,21873.0
1698415009435.9397,21863.0
1698415009456.3682,21856.0
1698415009476.7969,21853.0
1698415009497.2258,21846.0
1698415009517.6543,21849.0
1698415009538.0833,21851.0
1698415009558.5122,21850.0
1698415009578.941,21849.0
1698415009599.3696,21847.0
1698415009619.7986,21848.0
1698415009640.2273,21846.0
1698415009660.656,21850.0
1698415009681.085,21853.0
1698415009701.5137,21853.0
1698415009721.9424,21862.0
1698415009742.371,21857.0
1698415009762.8,21862.0
1698415009783.2288,21862.0
1698415009803.6577,21864.0
1698415009824.0864,21867.0
1698415009844.5151,21870.0
1698415009864.9438,21877.0
1698415009885.3728,21879.0
1698415009905.8015,21888.0
1698415009926.2302,21894.0
1698415009946.6592,21905.0
1698415009967.088,21907.0
1698415009987.5166,21915.0
