timestamp,ppg
1698920015.0192208,38048.0
1698920015.0396543,38048.0
1698920015.060088,38042.0
1698920015.0805216,38042.0
1698920015.100955,38048.0
1698920015.121389,38061.0
1698920015.1418226,38068.0
1698920015.1622555,38055.0
1698920015.1826892,38060.0
1698920015.2031229,38064.0
1698920015.223556,38065.0
1698920015.2439895,38065.0
1698920015.2644231,38067.0
1698920015.284857,38063.0
1698920015.3052902,38060.0
1698920015.3257241,38061.0
1698920015.3461578,38050.0
1698920015.3665907,38047.0
1698920015.3870244,38045.0
1698920015.407458,38036.0
1698920015.4278913,38040.0
1698920015.448325,38009.0
1698920015.4687583,37996.0
1698920015.489192,37997.0
1698920015.5096254,38003.0
1698920015.530059,38023.0
1698920015.550493,38029.0
1698920015.570926,38020.0
1698920015.5913596,38027.0
1698920015.6117933,38033.0
1698920015.6322267,38032.0
1698920015.6526601,38029.0
1698920015.6730938,38035.0
1698920015.693527,38031.0
1698920015.7139606,38028.0
1698920015.7343943,38035.0
1698920015.754828,38033.0
1698920015.7752616,38040.0
1698920015.7956948,38038.0
1698920015.8161285,38035.0
1698920015.836562,38034.0
1698920015.8569953,38028.0
1698920015.877429,38030.0
1698920015.8978622,38023.0
1698920015.9182959,38026.0
1698920015.9387295,38027.0
1698920015.9591632,38026.0
1698920015.9795966,38015.0
1698920016.00003,38034.0
1698920016.0204637,38029.0
1698920016.0408971,38031.0
1698920016.0613306,38029.0
1698920016.0817642,38044.0
1698920016.1021976,38041.0
1698920016.122631,38039.0
1698920016.1430647,38057.0
1698920016.1634984,38045.0
1698920016.1839318,38046.0
1698920016.2043653,38056.0
1698920016.224799,38063.0
1698920016.2452323,38075.0
1698920016.265666,38089.0
1698920016.2860994,38107.0
1698920016.3065329,38112.0
1698920016.3269665,38121.0
1698920016.3474,38135.0
1698920016.3678336,38138.0
1698920016.388267,38144.0
1698920016.4087007,38134.0
1698920016.4291341,38138.0
1698920016.4495676,38140.0
1698920016.4700012,38155.0
1698920016.4904346,38181.0
1698920016.510868,38193.0
1698920016.5313017,38212.0
1698920016.5517352,38252.0
1698920016.5721686,38286.0
1698920016.5926023,38321.0
1698920016.613036,38348.0
1698920016.6334693,38374.0
1698920016.6539028,38415.0
1698920016.6743364,38435.0
1698920016.6947699,38432.0
1698920016.7152033,38442.0
1698920016.735637,38449.0
1698920016.7560706,38414.0
1698920016.7765038,38400.0
1698920016.7969375,38413.0
1698920016.8173711,38425.0
1698920016.8378046,38426.0
1698920016.858238,38425.0
1698920016.8786716,38422.0
1698920016.8991053,38419.0
1698920016.9195385,38423.0
1698920016.9399722,38410.0
1698920016.9604058,38423.0
1698920016.980839,38406.0
1698920017.0012727,38421.0
1698920017.0217063,38419.0
1698920017.04214,38410.0
1698920017.0625732,38401.0
1698920017.0830069,38419.0
1698920017.1034405,38401.0
1698920017.1238737,38395.0
1698920017.1443074,38389.0
1698920017.164741,38395.0
1698920017.1851742,38396.0
1698920017.205608,38390.0
1698920017.2260416,38382.0
1698920017.246475,38384.0
1698920017.2669084,38382.0
1698920017.287342,38370.0
1698920017.3077757,38367.0
1698920017.328209,38348.0
1698920017.3486426,38357.0
1698920017.3690763,38330.0
1698920017.3895097,38322.0
1698920017.409943,38309.0
1698920017.4303768,38317.0
1698920017.4508102,38296.0
1698920017.4712436,38280.0
1698920017.4916773,38279.0
1698920017.512111,38261.0
1698920017.5325444,38255.0
1698920017.5529778,38240.0
1698920017.5734115,38229.0
1698920017.593845,38227.0
1698920017.6142783,38217.0
1698920017.634712,38201.0
1698920017.6551454,38203.0
1698920017.6755788,38194.0
1698920017.6960125,38175.0
1698920017.7164462,38166.0
1698920017.7368796,38156.0
1698920017.757313,38155.0
1698920017.7777467,38139.0
1698920017.79818,38123.0
1698920017.8186135,38121.0
1698920017.8390472,38104.0
1698920017.8594806,38085.0
1698920017.8799143,38067.0
1698920017.9003477,38046.0
1698920017.9207811,38036.0
1698920017.9412148,38032.0
1698920017.9616482,37998.0
1698920017.982082,38004.0
1698920018.0025153,37990.0
1698920018.022949,37961.0
1698920018.0433824,37913.0
1698920018.0638158,37898.0
1698920018.0842495,37919.0
1698920018.104683,37914.0
1698920018.1251163,37900.0
1698920018.14555,37892.0
1698920018.1659837,37894.0
1698920018.186417,37889.0
1698920018.2068505,37878.0
1698920018.2272842,37872.0
1698920018.2477176,37855.0
1698920018.268151,37845.0
1698920018.2885847,37823.0
1698920018.3090181,37822.0
1698920018.3294516,37804.0
1698920018.3498852,37787.0
1698920018.370319,37765.0
1698920018.3907523,37752.0
1698920018.4111857,37722.0
1698920018.4316194,37706.0
1698920018.4520528,37685.0
1698920018.4724863,37667.0
1698920018.49292,37649.0
1698920018.5133536,37637.0
1698920018.5337868,37627.0
1698920018.5542204,37634.0
1698920018.574654,37625.0
1698920018.5950873,37607.0
1698920018.615521,37617.0
1698920018.6359546,37610.0
1698920018.6563883,37589.0
1698920018.6768215,37596.0
1698920018.6972551,37591.0
1698920018.7176888,37575.0
1698920018.738122,37581.0
1698920018.7585557,37588.0
1698920018.7789893,37575.0
1698920018.7994225,37576.0
1698920018.8198562,37561.0
1698920018.8402898,37570.0
1698920018.8607235,37544.0
1698920018.8811567,37555.0
1698920018.9015903,37536.0
1698920018.922024,37527.0
1698920018.9424572,37530.0
1698920018.9628909,37505.0
1698920018.9833245,37487.0
1698920019.003758,37494.0
1698920019.0241914,37475.0
1698920019.044625,37476.0
1698920019.0650587,37459.0
1698920019.085492,37446.0
1698920019.1059256,37447.0
1698920019.1263592,37427.0
1698920019.1467927,37417.0
1698920019.167226,37416.0
1698920019.1876597,37393.0
1698920019.2080932,37391.0
1698920019.2285266,37377.0
1698920019.2489603,37369.0
1698920019.2693937,37374.0
1698920019.2898273,37351.0
1698920019.3102608,37313.0
1698920019.3306944,37301.0
1698920019.3511279,37299.0
1698920019.3715613,37297.0
1698920019.391995,37293.0
1698920019.4124284,37303.0
1698920019.4328618,37300.0
1698920019.4532955,37294.0
1698920019.473729,37281.0
1698920019.4941626,37285.0
1698920019.514596,37281.0
1698920019.5350296,37284.0
1698920019.555463,37271.0
1698920019.5758965,37265.0
1698920019.5963302,37261.0
1698920019.6167636,37254.0
1698920019.6371973,37247.0
1698920019.6576307,37239.0
1698920019.678064,37239.0
1698920019.6984978,37240.0
1698920019.7189312,37228.0
1698920019.7393649,37224.0
1698920019.7597983,37218.0
1698920019.780232,37210.0
1698920019.8006654,37200.0
1698920019.8210988,37200.0
1698920019.8415325,37180.0
1698920019.861966,37177.0
1698920019.8823993,37165.0
1698920019.902833,37156.0
1698920019.9232664,37142.0
1698920019.9436998,37140.0
1698920019.9641335,37121.0
1698920019.9845672,37113.0
1698920020.0050006,37115.0
1698920020.025434,37091.0
1698920020.0458677,37082.0
1698920020.066301,37072.0
1698920020.0867345,37071.0
1698920020.1071682,37071.0
1698920020.1276019,37048.0
1698920020.148035,37049.0
1698920020.1684687,37035.0
1698920020.1889024,37029.0
1698920020.2093358,37027.0
1698920020.2297692,37029.0
1698920020.250203,37021.0
1698920020.2706366,37023.0
1698920020.2910697,37006.0
1698920020.3115034,37014.0
1698920020.331937,37019.0
1698920020.3523703,37010.0
1698920020.372804,37014.0
1698920020.3932376,37005.0
1698920020.4136713,37020.0
1698920020.4341044,37012.0
1698920020.454538,36996.0
1698920020.4749718,37005.0
1698920020.495405,37001.0
1698920020.5158386,36993.0
1698920020.5362723,37009.0
1698920020.5567055,37002.0
1698920020.5771391,37005.0
1698920020.5975728,36994.0
1698920020.6180062,36967.0
1698920020.6384397,36973.0
1698920020.6588733,36988.0
1698920020.679307,36990.0
1698920020.6997402,36991.0
1698920020.7201738,36997.0
1698920020.7406075,36983.0
1698920020.761041,36988.0
1698920020.7814744,36996.0
1698920020.801908,36992.0
1698920020.8223414,36995.0
1698920020.8427749,36994.0
1698920020.8632085,36995.0
1698920020.8836422,36991.0
1698920020.9040756,36984.0
1698920020.924509,36974.0
1698920020.9449427,36982.0
1698920020.9653761,36988.0
1698920020.9858096,36991.0
1698920021.0062432,36968.0
1698920021.0266767,36976.0
1698920021.04711,36965.0
1698920021.0675437,36966.0
1698920021.0879774,36957.0
1698920021.1084108,36967.0
1698920021.1288443,36953.0
1698920021.149278,36951.0
1698920021.1697114,36942.0
1698920021.1901448,36936.0
1698920021.2105784,36935.0
1698920021.2310119,36946.0
1698920021.2514455,36930.0
1698920021.271879,36933.0
1698920021.2923124,36921.0
1698920021.312746,36929.0
1698920021.3331795,36923.0
1698920021.3536131,36910.0
1698920021.3740466,36921.0
1698920021.3944802,36928.0
1698920021.4149137,36908.0
1698920021.435347,36904.0
1698920021.4557807,36904.0
1698920021.4762142,36915.0
1698920021.4966476,36902.0
1698920021.5170813,36911.0
1698920021.537515,36916.0
1698920021.5579484,36912.0
1698920021.5783818,36914.0
1698920021.5988154,36914.0
1698920021.6192489,36913.0
1698920021.6396823,36918.0
1698920021.660116,36916.0
1698920021.6805494,36924.0
1698920021.7009828,36917.0
1698920021.7214165,36909.0
1698920021.7418501,36913.0
1698920021.7622836,36924.0
1698920021.782717,36923.0
1698920021.8031507,36916.0
1698920021.823584,36926.0
1698920021.8440175,36922.0
1698920021.8644512,36928.0
1698920021.8848848,36922.0
1698920021.905318,36883.0
1698920021.9257517,36900.0
1698920021.9461854,36917.0
1698920021.966619,36928.0
1698920021.9870522,36926.0
1698920022.0074859,36935.0
1698920022.0279195,36928.0
1698920022.0483527,36932.0
1698920022.0687864,36927.0
1698920022.08922,36942.0
1698920022.1096532,36950.0
1698920022.130087,36966.0
1698920022.1505206,36960.0
1698920022.170954,36941.0
1698920022.1913877,36943.0
1698920022.211821,36938.0
1698920022.2322547,36934.0
1698920022.252688,36926.0
1698920022.2731216,36947.0
1698920022.2935553,36932.0
1698920022.3139882,36938.0
1698920022.334422,36947.0
1698920022.3548558,36953.0
1698920022.3752892,36960.0
1698920022.3957229,36982.0
1698920022.4161563,36985.0
1698920022.43659,36996.0
1698920022.4570231,37008.0
1698920022.4774568,37030.0
1698920022.4978905,37037.0
1698920022.518324,37051.0
1698920022.538757,37061.0
1698920022.559191,37065.0
1698920022.5796244,37083.0
1698920022.600058,37078.0
1698920022.6204917,37080.0
1698920022.640925,37095.0
1698920022.6613586,37095.0
1698920022.681792,37097.0
1698920022.7022257,37096.0
1698920022.722659,37097.0
1698920022.7430923,37103.0
1698920022.763526,37127.0
1698920022.7839596,37130.0
1698920022.804393,37135.0
1698920022.824827,37148.0
1698920022.8452604,37148.0
1698920022.8656938,37163.0
1698920022.8861272,37182.0
1698920022.906561,37190.0
1698920022.9269943,37204.0
1698920022.9474275,37218.0
1698920022.9678612,37233.0
1698920022.9882948,37247.0
1698920023.0087285,37266.0
1698920023.0291622,37273.0
1698920023.0495956,37291.0
1698920023.070029,37311.0
1698920023.0904624,37317.0
1698920023.110896,37332.0
1698920023.1313295,37347.0
1698920023.1517632,37357.0
1698920023.1721964,37349.0
1698920023.1926298,37347.0
1698920023.2130637,37363.0
1698920023.2334971,37388.0
1698920023.2539308,37382.0
1698920023.2743645,37400.0
1698920023.2947977,37390.0
1698920023.315231,37398.0
1698920023.3356647,37399.0
1698920023.3560984,37395.0
1698920023.3765316,37392.0
1698920023.396965,37401.0
1698920023.417399,37394.0
1698920023.4378326,37415.0
1698920023.458266,37400.0
1698920023.4786997,37400.0
1698920023.499133,37406.0
1698920023.5195663,37411.0
1698920023.5604336,37411.0
1698920023.580867,37411.0
1698920023.6013002,37418.0
1698920023.621734,37416.0
1698920023.6421676,37420.0
1698920023.662601,37423.0
1698920023.683035,37441.0
1698920023.7034686,37440.0
1698920023.7239015,37458.0
1698920023.7443352,37454.0
1698920023.7647688,37467.0
1698920023.7852025,37476.0
1698920023.8056355,37469.0
1698920023.826069,37468.0
1698920023.846503,37458.0
1698920023.8669362,37458.0
1698920023.88737,37471.0
1698920023.9078038,37458.0
1698920023.9282367,37474.0
1698920023.9486704,37474.0
1698920023.969104,37483.0
1698920023.9895377,37492.0
1698920024.009971,37503.0
1698920024.0304043,37505.0
1698920024.050838,37536.0
1698920024.0712714,37553.0
1698920024.091705,37593.0
1698920024.112139,37649.0
1698920024.1325724,37717.0
1698920024.1530056,37795.0
1698920024.1734393,37876.0
1698920024.1938727,37933.0
1698920024.214306,37971.0
1698920024.2347395,37995.0
1698920024.2551732,38005.0
1698920024.2756069,38002.0
1698920024.2960403,38003.0
1698920024.3164742,37999.0
1698920024.3369076,37967.0
1698920024.3573408,37928.0
1698920024.3777745,37894.0
1698920024.398208,37858.0
1698920024.4186413,37815.0
1698920024.439075,37749.0
1698920024.4595084,37720.0
1698920024.4799418,37679.0
1698920024.5003755,37666.0
1698920024.5208092,37647.0
1698920024.5412428,37628.0
1698920024.561676,37614.0
1698920024.5821097,37593.0
1698920024.602543,37572.0
1698920024.6229768,37537.0
1698920024.6434102,37517.0
1698920024.6638436,37498.0
1698920024.684277,37471.0
1698920024.7047107,37459.0
1698920024.7251444,37449.0
1698920024.7455778,37409.0
1698920024.7660117,37394.0
1698920024.786445,37359.0
1698920024.8068783,37346.0
1698920024.827312,37304.0
1698920024.8477454,37274.0
1698920024.8681788,37246.0
1698920024.8886123,37218.0
1698920024.909046,37173.0
1698920024.9294796,37148.0
1698920024.949913,37124.0
1698920024.9703467,37107.0
1698920024.99078,37097.0
1698920025.0112135,37095.0
1698920025.0316472,37073.0
1698920025.0520806,37053.0
1698920025.072514,37041.0
1698920025.0929477,37026.0
1698920025.1133811,36991.0
1698920025.1338148,36971.0
1698920025.1542482,36954.0
1698920025.174682,36928.0
1698920025.1951153,36887.0
1698920025.2155488,36864.0
1698920025.2359824,36824.0
1698920025.256416,36796.0
1698920025.2768493,36758.0
1698920025.297283,36705.0
1698920025.3177166,36684.0
1698920025.3381498,36638.0
1698920025.3585835,36597.0
1698920025.379017,36573.0
1698920025.3994508,36517.0
1698920025.419884,36487.0
1698920025.4403176,36457.0
1698920025.4607513,36418.0
1698920025.4811845,36374.0
1698920025.5016181,36331.0
1698920025.5220518,36294.0
1698920025.542485,36255.0
1698920025.5629187,36211.0
1698920025.5833523,36179.0
1698920025.603786,36151.0
1698920025.6242192,36117.0
1698920025.6446528,36088.0
1698920025.6650865,36060.0
1698920025.6855197,36036.0
1698920025.7059534,36014.0
1698920025.726387,35978.0
1698920025.7468204,35919.0
1698920025.7672539,35899.0
1698920025.7876875,35880.0
1698920025.8081212,35871.0
1698920025.8285544,35850.0
1698920025.848988,35823.0
1698920025.8694217,35803.0
1698920025.8898551,35777.0
1698920025.9102886,35761.0
1698920025.9307222,35721.0
1698920025.9511557,35714.0
1698920025.971589,35694.0
1698920025.9920228,35653.0
1698920026.0124564,35624.0
1698920026.0328898,35606.0
1698920026.0533233,35588.0
1698920026.073757,35584.0
1698920026.0941904,35549.0
1698920026.1146238,35540.0
1698920026.1350574,35498.0
1698920026.1554909,35488.0
1698920026.1759243,35465.0
1698920026.196358,35441.0
1698920026.2167914,35412.0
1698920026.237225,35372.0
1698920026.2576585,35348.0
1698920026.2780921,35300.0
1698920026.2985256,35270.0
1698920026.318959,35224.0
1698920026.3393927,35200.0
1698920026.359826,35146.0
1698920026.3802598,35113.0
1698920026.4006932,35078.0
1698920026.4211266,35034.0
1698920026.4415603,35004.0
1698920026.4619937,34968.0
1698920026.4824274,34938.0
1698920026.5028608,34900.0
1698920026.5232944,34861.0
1698920026.5437279,34834.0
1698920026.5641613,34803.0
1698920026.584595,34768.0
1698920026.6050284,34731.0
1698920026.6254618,34687.0
1698920026.6458955,34660.0
1698920026.666329,34610.0
1698920026.6867623,34592.0
1698920026.707196,34554.0
1698920026.7276297,34512.0
1698920026.748063,34483.0
1698920026.7684965,34464.0
1698920026.7889302,34424.0
1698920026.8093636,34408.0
1698920026.829797,34373.0
1698920026.8502307,34341.0
1698920026.8706644,34299.0
1698920026.8910975,34278.0
1698920026.9115312,34251.0
1698920026.9319649,34209.0
1698920026.9523983,34158.0
1698920026.9728317,34125.0
1698920026.9932654,34096.0
1698920027.013699,34077.0
1698920027.0341322,34038.0
1698920027.054566,34014.0
1698920027.0749996,33984.0
1698920027.0954328,33965.0
1698920027.1158664,33932.0
1698920027.1363,33909.0
1698920027.1567338,33884.0
1698920027.177167,33846.0
1698920027.1976006,33810.0
1698920027.2180343,33784.0
1698920027.2384675,33738.0
1698920027.2589011,33709.0
1698920027.2793348,33679.0
1698920027.299768,33646.0
1698920027.3202016,33600.0
1698920027.3406353,33561.0
1698920027.361069,33537.0
1698920027.3815022,33490.0
1698920027.4019358,33442.0
1698920027.4223695,33410.0
1698920027.4428027,33362.0
1698920027.4632363,33333.0
1698920027.48367,33288.0
1698920027.5041034,33239.0
1698920027.5245368,33197.0
1698920027.5449705,33151.0
1698920027.565404,33112.0
1698920027.5858374,33070.0
1698920027.606271,33037.0
1698920027.6267047,32994.0
1698920027.647138,32956.0
1698920027.6675715,32928.0
1698920027.6880052,32885.0
1698920027.7084386,32847.0
1698920027.728872,32806.0
1698920027.7493057,32775.0
1698920027.7697392,32742.0
1698920027.7901726,32706.0
1698920027.8106062,32671.0
1698920027.83104,32639.0
1698920027.8514733,32608.0
1698920027.8719068,32585.0
1698920027.8923404,32554.0
1698920027.9127738,32531.0
1698920027.9332073,32511.0
1698920027.953641,32482.0
1698920027.9740744,32473.0
1698920027.994508,32453.0
1698920028.0149415,32427.0
1698920028.035375,32410.0
1698920028.0558085,32396.0
1698920028.076242,32373.0
1698920028.0966756,32362.0
1698920028.117109,32343.0
1698920028.1375427,32337.0
1698920028.1579762,32320.0
1698920028.1784096,32304.0
1698920028.1988432,32286.0
1698920028.2192767,32278.0
1698920028.23971,32260.0
1698920028.2601438,32243.0
1698920028.2805774,32224.0
1698920028.3010108,32206.0
1698920028.3214443,32165.0
1698920028.341878,32136.0
1698920028.3623114,32157.0
1698920028.3827448,32140.0
1698920028.4031785,32123.0
1698920028.4236119,32105.0
1698920028.4440453,32091.0
1698920028.464479,32075.0
1698920028.4849126,32055.0
1698920028.505346,32034.0
1698920028.5257795,32009.0
1698920028.5462132,32005.0
1698920028.5666466,31984.0
1698920028.58708,31974.0
1698920028.6075137,31943.0
1698920028.6279473,31936.0
1698920028.6483805,31921.0
1698920028.6688142,31897.0
1698920028.6892478,31880.0
1698920028.709681,31865.0
1698920028.7301147,31864.0
1698920028.7505484,31845.0
1698920028.770982,31828.0
1698920028.7914152,31814.0
1698920028.8118489,31807.0
1698920028.8322825,31785.0
1698920028.8527157,31770.0
1698920028.8731494,31754.0
1698920028.893583,31748.0
1698920028.9140162,31727.0
1698920028.93445,31715.0
1698920028.9548836,31703.0
1698920028.9753172,31697.0
1698920028.9957504,31683.0
1698920029.016184,31669.0
1698920029.0366178,31652.0
1698920029.057051,31643.0
1698920029.0774846,31628.0
1698920029.0979183,31621.0
1698920029.1183517,31601.0
1698920029.1387851,31588.0
1698920029.1592188,31571.0
1698920029.1796525,31555.0
1698920029.2000856,31541.0
1698920029.2205193,31527.0
1698920029.240953,31499.0
1698920029.2613864,31486.0
1698920029.2818198,31468.0
1698920029.3022535,31440.0
1698920029.322687,31433.0
1698920029.3431203,31408.0
1698920029.363554,31393.0
1698920029.3839877,31365.0
1698920029.404421,31349.0
1698920029.4248545,31336.0
1698920029.4452882,31314.0
1698920029.4657216,31299.0
1698920029.486155,31285.0
1698920029.5065887,31271.0
1698920029.5270221,31254.0
1698920029.5474555,31233.0
1698920029.5678892,31220.0
1698920029.5883226,31183.0
1698920029.6087563,31150.0
1698920029.6291897,31146.0
1698920029.6496234,31129.0
1698920029.6700568,31125.0
1698920029.6904902,31103.0
1698920029.710924,31090.0
1698920029.7313573,31071.0
1698920029.751791,31050.0
1698920029.7722244,31032.0
1698920029.7926579,31008.0
1698920029.8130915,30993.0
1698920029.833525,30972.0
1698920029.8539586,30943.0
1698920029.874392,30957.0
1698920029.8948257,30936.0
1698920029.9152591,30923.0
1698920029.9356925,30911.0
1698920029.9561262,30879.0
1698920029.9765596,30875.0
1698920029.996993,30862.0
1698920030.0174267,30847.0
1698920030.0378602,30835.0
1698920030.0582938,30815.0
1698920030.0787272,30797.0
1698920030.099161,30770.0
1698920030.1195943,30754.0
1698920030.1400278,30743.0
1698920030.1604614,30730.0
1698920030.1808949,30713.0
1698920030.2013283,30691.0
1698920030.221762,30675.0
1698920030.2421956,30653.0
1698920030.2626288,30643.0
1698920030.2830625,30619.0
1698920030.3034961,30598.0
1698920030.3239295,30582.0
1698920030.344363,30565.0
1698920030.3647966,30549.0
1698920030.3852303,30520.0
1698920030.4056635,30495.0
1698920030.4260972,30478.0
1698920030.4465308,30449.0
1698920030.466964,30433.0
1698920030.4873977,30403.0
1698920030.5078313,30382.0
1698920030.528265,30368.0
1698920030.5486982,30349.0
1698920030.5691319,30333.0
1698920030.5895655,30311.0
1698920030.6099987,30304.0
1698920030.6304324,30283.0
1698920030.650866,30285.0
1698920030.6712992,30275.0
1698920030.691733,30260.0
1698920030.7121665,30260.0
1698920030.7326002,30254.0
1698920030.7530334,30241.0
1698920030.773467,30223.0
1698920030.7939007,30228.0
1698920030.814334,30206.0
1698920030.8347676,30197.0
1698920030.8552012,30186.0
1698920030.8756347,30163.0
1698920030.896068,30123.0
1698920030.9165018,30115.0
1698920030.9369352,30111.0
1698920030.9573689,30094.0
1698920030.9778023,30074.0
1698920030.998236,30052.0
1698920031.0186694,30046.0
1698920031.0391028,30023.0
1698920031.0595365,29997.0
1698920031.07997,29987.0
1698920031.1004033,29986.0
1698920031.120837,29966.0
1698920031.1412704,29962.0
1698920031.161704,29946.0
1698920031.1821377,29916.0
1698920031.2025712,29903.0
1698920031.2230046,29888.0
1698920031.243438,29892.0
1698920031.2638717,29867.0
1698920031.284305,29867.0
1698920031.3047383,29845.0
1698920031.3251722,29845.0
1698920031.3456056,29836.0
1698920031.3660393,29814.0
1698920031.386473,29809.0
1698920031.4069064,29806.0
1698920031.4273398,29784.0
1698920031.4477732,29783.0
1698920031.468207,29771.0
1698920031.4886403,29771.0
1698920031.509074,29757.0
1698920031.5295072,29753.0
1698920031.5499408,29742.0
1698920031.5703745,29746.0
1698920031.5908082,29742.0
1698920031.6112418,29740.0
1698920031.631675,29735.0
1698920031.6521087,29725.0
1698920031.672542,29719.0
1698920031.6929755,29712.0
1698920031.7134092,29704.0
1698920031.7338424,29700.0
1698920031.7542758,29692.0
1698920031.7747097,29677.0
1698920031.7951431,29663.0
1698920031.8155768,29670.0
1698920031.8360105,29647.0
1698920031.856444,29631.0
1698920031.8768773,29625.0
1698920031.8973107,29591.0
1698920031.9177444,29588.0
1698920031.9381776,29560.0
1698920031.958611,29549.0
1698920031.979045,29541.0
1698920031.9994786,29519.0
1698920032.019912,29501.0
1698920032.0403457,29495.0
1698920032.060779,29480.0
1698920032.0812125,29438.0
1698920032.101646,29419.0
1698920032.1220796,29419.0
1698920032.1425133,29411.0
1698920032.1629462,29401.0
1698920032.18338,29386.0
1698920032.2038138,29372.0
1698920032.224247,29383.0
1698920032.244681,29364.0
1698920032.2651145,29369.0
1698920032.2855475,29367.0
1698920032.3059812,29351.0
1698920032.3264148,29341.0
1698920032.3468485,29344.0
1698920032.3672814,29252.0
1698920032.387715,29249.0
1698920032.408149,29237.0
1698920032.4285824,29224.0
1698920032.449016,29209.0
1698920032.4694498,29215.0
1698920032.489883,29209.0
1698920032.5103164,29184.0
1698920032.53075,29189.0
1698920032.5511837,29169.0
1698920032.571617,29171.0
1698920032.5920503,29164.0
1698920032.612484,29152.0
1698920032.6329174,29149.0
1698920032.653351,29149.0
1698920032.673785,29197.0
1698920032.6942184,29252.0
1698920032.7146516,29249.0
1698920032.7350852,29237.0
1698920032.755519,29224.0
1698920032.7759523,29209.0
1698920032.7963855,29215.0
1698920032.8168192,29209.0
1698920032.8372529,29184.0
1698920032.8576863,29189.0
1698920032.8781202,29169.0
1698920032.8985536,29171.0
1698920032.9189868,29164.0
1698920032.9394205,29152.0
1698920032.959854,29149.0
1698920032.9802876,29149.0
1698920033.000721,29197.0
1698920033.0211544,29125.0
1698920033.0415878,29113.0
1698920033.0620215,29103.0
1698920033.0824552,29105.0
1698920033.1028888,29085.0
1698920033.1233225,29103.0
1698920033.1437557,29052.0
1698920033.164189,29072.0
1698920033.1846228,29078.0
1698920033.2050562,29076.0
1698920033.2254896,29067.0
1698920033.245923,29049.0
1698920033.266357,29042.0
1698920033.2867904,29025.0
1698920033.307224,29026.0
1698920033.3276577,29021.0
1698920033.348091,29027.0
1698920033.3685243,29023.0
1698920033.388958,29020.0
1698920033.4093914,29010.0
1698920033.429825,29015.0
1698920033.4502583,28977.0
1698920033.470692,28974.0
1698920033.4911256,28986.0
1698920033.511559,28981.0
1698920033.531993,28983.0
1698920033.552426,28985.0
1698920033.5728595,28985.0
1698920033.5932932,28984.0
1698920033.6137269,28984.0
1698920033.63416,28974.0
1698920033.6545937,28978.0
1698920033.6750271,28966.0
1698920033.6954608,28960.0
1698920033.7158942,28963.0
1698920033.736328,28948.0
1698920033.7567618,28946.0
1698920033.7771947,28936.0
1698920033.7976284,28913.0
1698920033.818062,28915.0
1698920033.8384953,28898.0
1698920033.858929,28900.0
1698920033.8793623,28880.0
1698920033.899796,28877.0
1698920033.9202294,28859.0
1698920033.940663,28854.0
1698920033.9610968,28845.0
1698920033.98153,28847.0
1698920034.0019636,28837.0
1698920034.0223973,28821.0
1698920034.0428305,28829.0
1698920034.0632641,28821.0
1698920034.0836978,28818.0
1698920034.1041312,28815.0
1698920034.1245646,28807.0
1698920034.1449983,28808.0
1698920034.165432,28802.0
1698920034.1858652,28790.0
1698920034.2062988,28792.0
1698920034.2267325,28789.0
1698920034.247166,28774.0
1698920034.2675993,28780.0
1698920034.288033,28782.0
1698920034.3084664,28769.0
1698920034.3288999,28766.0
1698920034.3493335,28755.0
1698920034.3697672,28761.0
1698920034.3902006,28747.0
1698920034.410634,28753.0
1698920034.4310677,28753.0
1698920034.4515011,28750.0
1698920034.4719346,28744.0
1698920034.4923682,28737.0
1698920034.5128016,28725.0
1698920034.533235,28713.0
1698920034.5536687,28718.0
1698920034.5741024,28708.0
1698920034.5945358,28709.0
1698920034.6149693,28707.0
1698920034.635403,28708.0
1698920034.6558363,28709.0
1698920034.6762698,28707.0
1698920034.6967034,28701.0
1698920034.7171369,28690.0
1698920034.7375705,28686.0
1698920034.758004,28657.0
1698920034.7784376,28679.0
1698920034.798871,28684.0
1698920034.8193045,28676.0
1698920034.8397381,28677.0
1698920034.8601716,28674.0
1698920034.8806052,28672.0
1698920034.9010386,28671.0
1698920034.921472,28658.0
1698920034.9419057,28657.0
1698920034.9623392,28647.0
1698920034.9827726,28651.0
1698920035.0032063,28643.0
1698920035.02364,28630.0
1698920035.0440733,28631.0
1698920035.0645068,28644.0
1698920035.0849404,28620.0
1698920035.1053739,28630.0
1698920035.1258073,28625.0
1698920035.146241,28627.0
1698920035.1666744,28628.0
1698920035.1871078,28624.0
1698920035.2075415,28630.0
1698920035.2279751,28621.0
1698920035.2484086,28626.0
1698920035.268842,28614.0
1698920035.2892756,28622.0
1698920035.309709,28619.0
1698920035.3301425,28605.0
1698920035.3505762,28615.0
1698920035.3710098,28619.0
1698920035.391443,28610.0
1698920035.4118767,28620.0
1698920035.4323103,28612.0
1698920035.4527438,28607.0
1698920035.4731772,28600.0
1698920035.4936109,28608.0
1698920035.5140445,28609.0
1698920035.5344777,28608.0
1698920035.5549114,28607.0
1698920035.575345,28605.0
1698920035.5957782,28613.0
1698920035.616212,28601.0
1698920035.6366456,28604.0
1698920035.6570787,28599.0
1698920035.6775124,28599.0
1698920035.697946,28598.0
1698920035.7183797,28600.0
1698920035.738813,28593.0
1698920035.7592466,28588.0
1698920035.7796803,28584.0
1698920035.8001134,28576.0
1698920035.820547,28576.0
1698920035.8409808,28574.0
1698920035.8614142,28570.0
1698920035.8818476,28577.0
1698920035.9022813,28555.0
1698920035.922715,28554.0
1698920035.9431481,28550.0
1698920035.9635818,28562.0
1698920035.9840155,28552.0
1698920036.004449,28541.0
1698920036.0248823,28512.0
1698920036.045316,28523.0
1698920036.0657494,28531.0
1698920036.0861828,28531.0
1698920036.1066165,28530.0
1698920036.1270502,28532.0
1698920036.1474836,28524.0
1698920036.167917,28528.0
1698920036.1883507,28527.0
1698920036.208784,28534.0
1698920036.2292175,28527.0
1698920036.2496512,28521.0
1698920036.2700846,28510.0
1698920036.290518,28529.0
1698920036.3109517,28519.0
1698920036.3313851,28521.0
1698920036.3518188,28527.0
1698920036.3722522,28519.0
1698920036.392686,28516.0
1698920036.4131193,28521.0
1698920036.4335527,28514.0
1698920036.4539864,28506.0
1698920036.4744198,28506.0
1698920036.4948535,28506.0
1698920036.515287,28503.0
1698920036.5357203,28501.0
1698920036.556154,28507.0
1698920036.5765874,28512.0
1698920036.597021,28510.0
1698920036.6174545,28492.0
1698920036.6378882,28506.0
1698920036.6583216,28501.0
1698920036.678755,28498.0
1698920036.6991887,28498.0
1698920036.7196221,28500.0
1698920036.7400556,28507.0
1698920036.7604892,28484.0
1698920036.7809227,28485.0
1698920036.8013563,28490.0
1698920036.8217897,28480.0
1698920036.8422234,28483.0
1698920036.8626568,28484.0
1698920036.8830903,28484.0
1698920036.903524,28470.0
1698920036.9239573,28469.0
1698920036.9443908,28453.0
1698920036.9648244,28460.0
1698920036.985258,28462.0
1698920037.0056913,28457.0
1698920037.026125,28453.0
1698920037.0465586,28442.0
1698920037.066992,28454.0
1698920037.0874255,28446.0
1698920037.1078591,28430.0
1698920037.1282928,28446.0
1698920037.148726,28441.0
1698920037.1691597,28437.0
1698920037.1895933,28445.0
1698920037.2100265,28434.0
1698920037.2304602,28407.0
1698920037.2508938,28420.0
1698920037.2713275,28418.0
1698920037.2917607,28406.0
1698920037.3121943,28409.0
1698920037.332628,28401.0
1698920037.3530612,28402.0
1698920037.3734949,28412.0
1698920037.3939285,28397.0
1698920037.4143617,28399.0
1698920037.4347954,28396.0
1698920037.455229,28404.0
1698920037.4756627,28404.0
1698920037.496096,28404.0
1698920037.5165296,28407.0
1698920037.5369632,28405.0
1698920037.5573964,28406.0
1698920037.57783,28402.0
1698920037.5982637,28414.0
1698920037.6186972,28414.0
1698920037.6391306,28411.0
1698920037.6595643,28412.0
1698920037.679998,28393.0
1698920037.700431,28396.0
1698920037.7208648,28400.0
1698920037.7412984,28395.0
1698920037.7617319,28405.0
1698920037.7821653,28398.0
1698920037.802599,28397.0
1698920037.8230324,28386.0
1698920037.8434658,28382.0
1698920037.8638995,28389.0
1698920037.884333,28372.0
1698920037.9047663,28375.0
1698920037.9252,28374.0
1698920037.9456336,28379.0
1698920037.966067,28372.0
1698920037.9865005,28373.0
1698920038.0069342,28375.0
1698920038.0273676,28372.0
1698920038.047801,28377.0
1698920038.0682347,28378.0
1698920038.088668,28371.0
1698920038.1091018,28366.0
1698920038.1295352,28369.0
1698920038.1499689,28378.0
1698920038.1704023,28371.0
1698920038.1908357,28373.0
1698920038.2112694,28373.0
1698920038.2317028,28360.0
1698920038.2521365,28365.0
1698920038.27257,28376.0
1698920038.2930033,28372.0
1698920038.313437,28368.0
1698920038.3338704,28367.0
1698920038.3543038,28363.0
1698920038.3747375,28372.0
1698920038.3951712,28365.0
1698920038.4156046,28366.0
1698920038.436038,28366.0
1698920038.4564717,28371.0
1698920038.476905,28369.0
1698920038.4973385,28364.0
1698920038.5177722,28366.0
1698920038.5382056,28369.0
1698920038.558639,28357.0
1698920038.5790727,28362.0
1698920038.5995064,28343.0
1698920038.6199398,28341.0
1698920038.6403732,28355.0
1698920038.660807,28367.0
1698920038.6812403,28361.0
1698920038.7016737,28364.0
1698920038.7221074,28367.0
1698920038.742541,28370.0
1698920038.7629743,28370.0
1698920038.783408,28369.0
1698920038.8038416,28366.0
1698920038.824275,28360.0
1698920038.8447084,28358.0
1698920038.865142,28354.0
1698920038.8855758,28356.0
1698920038.906009,28347.0
1698920038.9264426,28350.0
1698920038.9468763,28350.0
1698920038.9673095,28351.0
1698920038.9877431,28341.0
1698920039.0081768,28346.0
1698920039.02861,28344.0
1698920039.0490437,28346.0
1698920039.0694773,28336.0
1698920039.089911,28332.0
1698920039.1103442,28335.0
1698920039.1307778,28335.0
1698920039.1512115,28337.0
1698920039.1716447,28329.0
1698920039.1920784,28341.0
1698920039.212512,28319.0
1698920039.2329454,28331.0
1698920039.2533789,28332.0
1698920039.2738125,28332.0
1698920039.2942462,28334.0
1698920039.3146794,28326.0
1698920039.335113,28329.0
1698920039.3555467,28325.0
1698920039.3759801,28323.0
1698920039.3964136,28316.0
1698920039.4168472,28317.0
1698920039.4372807,28318.0
1698920039.457714,28317.0
1698920039.4781477,28316.0
1698920039.4985814,28316.0
1698920039.5190148,28301.0
1698920039.5394483,28307.0
1698920039.559882,28309.0
1698920039.5803154,28308.0
1698920039.6007488,28307.0
1698920039.6211824,28305.0
1698920039.6416159,28293.0
1698920039.6620493,28302.0
1698920039.682483,28287.0
1698920039.7029166,28299.0
1698920039.72335,28288.0
1698920039.7437835,28295.0
1698920039.7642171,28301.0
1698920039.7846506,28293.0
1698920039.805084,28299.0
1698920039.8255177,28300.0
1698920039.845951,28288.0
1698920039.8663847,28296.0
1698920039.8868182,28266.0
1698920039.9072516,28272.0
1698920039.9276853,28281.0
1698920039.948119,28291.0
1698920039.9685524,28291.0
1698920039.9889858,28299.0
1698920040.0094194,28305.0
1698920040.0298529,28311.0
1698920040.0502863,28313.0
1698920040.07072,28310.0
1698920040.0911534,28310.0
1698920040.1115868,28302.0
1698920040.1320205,28303.0
1698920040.1524541,28309.0
1698920040.1728878,28303.0
1698920040.193321,28304.0
1698920040.2137547,28313.0
1698920040.234188,28311.0
1698920040.2546215,28306.0
1698920040.2750552,28312.0
1698920040.2954884,28313.0
1698920040.315922,28315.0
1698920040.3363557,28314.0
1698920040.3567894,28305.0
1698920040.377223,28319.0
1698920040.3976562,28315.0
1698920040.4180899,28315.0
1698920040.4385233,28316.0
1698920040.4589567,28316.0
1698920040.4793904,28302.0
1698920040.499824,28310.0
1698920040.520257,28311.0
1698920040.540691,28302.0
1698920040.5611246,28303.0
1698920040.581558,28302.0
1698920040.6019917,28302.0
1698920040.622425,28307.0
1698920040.6428587,28288.0
1698920040.663292,28293.0
1698920040.6837256,28295.0
1698920040.7041593,28290.0
1698920040.7245922,28278.0
1698920040.7450259,28275.0
1698920040.7654598,28286.0
1698920040.785893,28291.0
1698920040.8063269,28288.0
1698920040.8267605,28282.0
1698920040.847194,28279.0
1698920040.8676271,28281.0
1698920040.8880608,28275.0
1698920040.9084945,28269.0
1698920040.9289274,28270.0
1698920040.949361,28273.0
1698920040.969795,28272.0
1698920040.9902284,28260.0
1698920041.010662,28272.0
1698920041.0310957,28263.0
1698920041.0515292,28262.0
1698920041.0719624,28260.0
1698920041.092396,28253.0
1698920041.1128297,28246.0
1698920041.133263,28224.0
1698920041.1536963,28218.0
1698920041.17413,28221.0
1698920041.1945636,28218.0
1698920041.214997,28154.0
1698920041.235431,28235.0
1698920041.2558646,28237.0
1698920041.2762976,28237.0
1698920041.2967312,28236.0
1698920041.317165,28233.0
1698920041.3375983,28230.0
1698920041.3580315,28234.0
1698920041.3784652,28236.0
1698920041.3988988,28225.0
1698920041.4193325,28221.0
1698920041.4397662,28225.0
1698920041.4601996,28218.0
1698920041.480633,28226.0
1698920041.5010664,28215.0
1698920041.5215,28221.0
1698920041.5419335,28214.0
1698920041.562367,28220.0
1698920041.5828004,28220.0
1698920041.6032338,28228.0
1698920041.6236675,28234.0
1698920041.6441011,28243.0
1698920041.6645348,28234.0
1698920041.6849685,28237.0
1698920041.7054017,28234.0
1698920041.7258353,28240.0
1698920041.7462687,28219.0
1698920041.7667024,28231.0
1698920041.7871356,28236.0
1698920041.807569,28221.0
1698920041.828003,28219.0
1698920041.8484364,28220.0
1698920041.86887,28207.0
1698920041.8893037,28213.0
1698920041.9097369,28211.0
1698920041.9301703,28199.0
1698920041.950604,28221.0
1698920041.9710376,28219.0
1698920041.991471,28213.0
1698920042.0119042,28212.0
1698920042.032338,28212.0
1698920042.0527716,28214.0
1698920042.073205,28213.0
1698920042.093639,28209.0
1698920042.1140726,28213.0
1698920042.1345055,28216.0
1698920042.1549392,28214.0
1698920042.1753728,28208.0
1698920042.1958063,28208.0
1698920042.2162395,28215.0
1698920042.236673,28201.0
1698920042.257107,28198.0
1698920042.2775402,28197.0
1698920042.297974,28209.0
1698920042.3184078,28201.0
1698920042.3388407,28206.0
1698920042.3592744,28205.0
1698920042.379708,28197.0
1698920042.4001412,28199.0
1698920042.420575,28196.0
1698920042.4410083,28188.0
1698920042.461442,28171.0
1698920042.4818754,28188.0
1698920042.502309,28195.0
1698920042.522743,28201.0
1698920042.543176,28215.0
1698920042.5636096,28210.0
1698920042.5840433,28221.0
1698920042.6044767,28214.0
1698920042.62491,28219.0
1698920042.6453438,28208.0
1698920042.6657772,28207.0
1698920042.6862106,28204.0
1698920042.7066443,28208.0
1698920042.727078,28208.0
1698920042.7475116,28209.0
1698920042.7679448,22564.0
1698920042.7883785,22560.0
1698920042.808812,22559.0
1698920042.8292453,22558.0
1698920042.849679,22564.0
1698920042.8701124,22566.0
1698920042.8905458,22562.0
1698920042.9109795,22563.0
1698920042.9314132,22559.0
1698920042.9518466,22566.0
1698920042.97228,22563.0
1698920042.9927137,22559.0
1698920043.013147,22552.0
1698920043.0335805,22556.0
1698920043.0540142,22552.0
1698920043.0744479,22552.0
1698920043.094881,22556.0
1698920043.1153147,22552.0
1698920043.1357484,22552.0
1698920043.1561818,22562.0
1698920043.1766152,22548.0
1698920043.197049,22546.0
1698920043.2174823,22551.0
1698920043.237916,22554.0
1698920043.2583494,22549.0
1698920043.2787828,22550.0
1698920043.2992165,22541.0
1698920043.31965,22518.0
1698920043.3400836,22525.0
1698920043.360517,22535.0
1698920043.3809507,22540.0
1698920043.401384,22547.0
1698920043.4218175,22547.0
1698920043.4422512,22545.0
1698920043.4626846,22544.0
1698920043.483118,22536.0
1698920043.5035517,22542.0
1698920043.5239851,22539.0
1698920043.5444188,22531.0
1698920043.5648522,22543.0
1698920043.585286,22533.0
1698920043.6057193,22535.0
1698920043.6261528,22525.0
1698920043.6465864,22529.0
1698920043.6670198,22526.0
1698920043.6874533,22528.0
1698920043.707887,22522.0
1698920043.7283206,22527.0
1698920043.748754,22516.0
1698920043.7691875,22524.0
1698920043.789621,22519.0
1698920043.8100545,22523.0
1698920043.830488,22515.0
1698920043.8509216,22519.0
1698920043.8713553,22522.0
1698920043.8917885,22512.0
1698920043.9122221,22514.0
1698920043.9326558,22519.0
1698920043.953089,22516.0
1698920043.9735227,22508.0
1698920043.9939563,22517.0
1698920044.01439,22517.0
1698920044.0348232,22514.0
1698920044.0552568,22518.0
1698920044.0756905,22526.0
1698920044.0961237,22527.0
1698920044.1165574,22515.0
1698920044.136991,22515.0
1698920044.1574242,22512.0
1698920044.1778579,22516.0
1698920044.1982915,22520.0
1698920044.2187252,22513.0
1698920044.2391584,22507.0
1698920044.259592,22512.0
1698920044.2800257,22511.0
1698920044.300459,22515.0
1698920044.3208926,22508.0
1698920044.3413262,22513.0
1698920044.3617597,22511.0
1698920044.382193,22517.0
1698920044.4026268,22515.0
1698920044.4230604,22517.0
1698920044.4434936,22519.0
1698920044.4639273,22518.0
1698920044.484361,22498.0
1698920044.5047944,22496.0
1698920044.5252278,22491.0
1698920044.5456614,22491.0
1698920044.5660949,22502.0
1698920044.5865283,22495.0
1698920044.606962,22497.0
1698920044.6273954,22497.0
1698920044.6478288,22489.0
1698920044.6682625,22482.0
1698920044.6886961,22495.0
1698920044.7091296,22500.0
1698920044.729563,22501.0
1698920044.7499967,22511.0
1698920044.77043,22503.0
1698920044.7908635,22503.0
1698920044.8112972,22512.0
1698920044.8317306,22504.0
1698920044.8521643,22507.0
1698920044.8725977,22503.0
1698920044.8930314,22509.0
1698920044.9134648,22504.0
1698920044.9338982,22504.0
1698920044.9543319,22512.0
1698920044.9747653,22499.0
1698920044.995199,22508.0
1698920045.0156324,22507.0
1698920045.0360658,22495.0
1698920045.0564995,22500.0
1698920045.076933,22501.0
1698920045.0973666,22496.0
1698920045.1178,22500.0
1698920045.1382337,22494.0
1698920045.158667,22503.0
1698920045.1791005,22499.0
1698920045.1995342,22496.0
1698920045.2199676,22494.0
1698920045.240401,22492.0
1698920045.2608347,22502.0
1698920045.2812681,22497.0
1698920045.3017015,22497.0
1698920045.3221352,22503.0
1698920045.3425689,22496.0
1698920045.3630023,22502.0
1698920045.3834357,22499.0
1698920045.4038694,22490.0
1698920045.4243028,22498.0
1698920045.4447362,22502.0
1698920045.46517,22495.0
1698920045.4856036,22495.0
1698920045.5060368,22492.0
1698920045.5264704,22491.0
1698920045.546904,22496.0
1698920045.5673375,22493.0
1698920045.587771,22497.0
1698920045.6082046,22492.0
1698920045.6286383,22497.0
1698920045.6490715,22494.0
1698920045.6695051,22502.0
1698920045.6899388,22496.0
1698920045.710372,22493.0
1698920045.7308056,22492.0
1698920045.7512393,22501.0
1698920045.7716727,22497.0
1698920045.7921062,22489.0
1698920045.8125398,22495.0
1698920045.8329735,22493.0
1698920045.8534067,22498.0
1698920045.8738403,22474.0
1698920045.894274,22463.0
1698920045.9147072,22463.0
1698920045.9351408,22479.0
1698920045.9555745,22478.0
1698920045.976008,22470.0
1698920045.9964414,22476.0
1698920046.016875,22477.0
1698920046.0373087,22481.0
1698920046.0577419,22483.0
1698920046.0781755,22480.0
1698920046.0986092,22480.0
1698920046.1190426,22486.0
1698920046.139476,22479.0
1698920046.1599097,22482.0
1698920046.1803432,22482.0
1698920046.2007766,22481.0
1698920046.2212102,22475.0
1698920046.241644,22478.0
1698920046.2620773,22471.0
1698920046.2825108,22470.0
1698920046.3029444,22465.0
1698920046.3233778,22469.0
1698920046.3438113,22475.0
1698920046.364245,22470.0
1698920046.3846784,22474.0
1698920046.4051118,22481.0
1698920046.4255455,22476.0
1698920046.445979,22470.0
1698920046.4664125,22479.0
1698920046.486846,22482.0
1698920046.5072796,22471.0
1698920046.527713,22479.0
1698920046.5481465,22478.0
1698920046.5685802,22475.0
1698920046.5890136,22481.0
1698920046.6094472,22472.0
1698920046.6298807,22474.0
1698920046.650314,22473.0
1698920046.6707478,22472.0
1698920046.6911812,22479.0
1698920046.7116148,22478.0
1698920046.7320483,22480.0
1698920046.752482,22477.0
1698920046.7729154,22480.0
1698920046.7933488,22483.0
1698920046.8137825,22477.0
1698920046.8342159,22475.0
1698920046.8546493,22476.0
1698920046.875083,22475.0
1698920046.8955164,22476.0
1698920046.91595,22478.0
1698920046.9363835,22475.0
1698920046.9568172,22471.0
1698920046.9772506,22472.0
1698920046.997684,22466.0
1698920047.0181177,22472.0
1698920047.038551,22474.0
1698920047.0589845,22473.0
1698920047.0794182,22469.0
1698920047.0998518,22473.0
1698920047.1202853,22470.0
1698920047.1407187,22468.0
1698920047.1611524,22448.0
1698920047.1815858,22442.0
1698920047.2020192,22441.0
1698920047.2224529,22452.0
1698920047.2428865,22456.0
1698920047.2633197,22459.0
1698920047.2837534,22464.0
1698920047.304187,22466.0
1698920047.3246202,22459.0
1698920047.345054,22462.0
1698920047.3654876,22473.0
1698920047.3859212,22469.0
1698920047.4063544,22471.0
1698920047.426788,22473.0
1698920047.4472218,22469.0
1698920047.467655,22472.0
1698920047.4880886,22470.0
1698920047.5085223,22470.0
1698920047.5289555,22474.0
1698920047.5493891,22465.0
1698920047.5698228,22469.0
1698920047.5902565,22460.0
1698920047.6106896,22468.0
1698920047.6311233,22469.0
1698920047.651557,22467.0
1698920047.6719902,22479.0
1698920047.6924238,22473.0
1698920047.7128575,22471.0
1698920047.733291,22474.0
1698920047.7537243,22474.0
1698920047.774158,22467.0
1698920047.7945917,22472.0
1698920047.8150249,22469.0
1698920047.8354585,22471.0
1698920047.8558922,22466.0
1698920047.8763256,22471.0
1698920047.896759,22465.0
1698920047.9171927,22462.0
1698920047.9376261,22464.0
1698920047.9580595,22464.0
1698920047.9784932,22467.0
1698920047.9989266,22468.0
1698920048.01936,22465.0
1698920048.0397937,22465.0
1698920048.0602274,22462.0
1698920048.0806608,22466.0
1698920048.1010942,22458.0
1698920048.121528,22462.0
1698920048.1419613,22467.0
1698920048.1623948,22461.0
1698920048.1828284,22467.0
1698920048.2032619,22458.0
1698920048.2236955,22455.0
1698920048.244129,22466.0
1698920048.2645626,22458.0
1698920048.284996,22460.0
1698920048.3054295,22459.0
1698920048.3258631,22460.0
1698920048.3462965,22457.0
1698920048.3667302,22461.0
1698920048.3871636,22456.0
1698920048.407597,22450.0
1698920048.4280307,22439.0
1698920048.4484642,22433.0
1698920048.4688978,22437.0
1698920048.4893312,22429.0
1698920048.509765,22441.0
1698920048.5301983,22448.0
1698920048.5506318,22448.0
1698920048.5710654,22451.0
1698920048.5914989,22445.0
1698920048.6119323,22443.0
1698920048.632366,22454.0
1698920048.6527994,22455.0
1698920048.6732328,22457.0
1698920048.6936665,22457.0
1698920048.7141001,22459.0
1698920048.7345335,22458.0
1698920048.754967,22459.0
1698920048.7754006,22454.0
1698920048.795834,22447.0
1698920048.8162675,22453.0
1698920048.8367012,22445.0
1698920048.8571348,22455.0
1698920048.877568,22452.0
1698920048.8980017,22449.0
1698920048.9184353,22446.0
1698920048.938869,22455.0
1698920048.9593022,22446.0
1698920048.9797359,22444.0
1698920049.0001695,22442.0
1698920049.0206027,22449.0
1698920049.0410364,22443.0
1698920049.06147,22441.0
1698920049.0819032,22438.0
1698920049.102337,22442.0
1698920049.1227705,22445.0
1698920049.1432042,22440.0
1698920049.1636376,22435.0
1698920049.184071,22441.0
1698920049.2045047,22442.0
1698920049.224938,22446.0
1698920049.2453716,22438.0
1698920049.2658052,22439.0
1698920049.2862382,22436.0
1698920049.306672,22439.0
1698920049.3271058,22431.0
1698920049.3475394,22429.0
1698920049.3679729,22432.0
1698920049.3884063,22431.0
1698920049.40884,22433.0
1698920049.4292731,22432.0
1698920049.4497068,22430.0
1698920049.4701405,22428.0
1698920049.490574,22429.0
1698920049.511007,22432.0
1698920049.531441,22431.0
1698920049.5518744,22419.0
1698920049.572308,22429.0
1698920049.5927417,22429.0
1698920049.6131752,22427.0
1698920049.6336086,22423.0
1698920049.654042,22410.0
1698920049.6744757,22395.0
1698920049.694909,22389.0
1698920049.7153423,22388.0
1698920049.735776,22388.0
1698920049.7562096,22387.0
1698920049.776643,22387.0
1698920049.797077,22392.0
1698920049.8175106,22404.0
1698920049.8379438,22405.0
1698920049.8583772,22411.0
1698920049.878811,22412.0
1698920049.8992443,22418.0
1698920049.9196775,22417.0
1698920049.9401112,22418.0
1698920049.9605448,22408.0
1698920049.9809785,22414.0
1698920050.0014122,22410.0
1698920050.0218458,22415.0
1698920050.042279,22418.0
1698920050.0627124,22420.0
1698920050.083146,22412.0
1698920050.1035795,22418.0
1698920050.1240132,22420.0
1698920050.1444464,22418.0
1698920050.1648798,22424.0
1698920050.1853137,22419.0
1698920050.2057471,22420.0
1698920050.2261808,22422.0
1698920050.2466145,22429.0
1698920050.2670476,22419.0
1698920050.2874813,22424.0
1698920050.3079147,22421.0
1698920050.3283484,22427.0
1698920050.3487816,22420.0
1698920050.369215,22421.0
1698920050.389649,22424.0
1698920050.4100826,22422.0
1698920050.430516,22423.0
1698920050.4509497,22418.0
1698920050.471383,22429.0
1698920050.4918165,22416.0
1698920050.51225,22422.0
1698920050.5326836,22423.0
1698920050.553117,22426.0
1698920050.5735502,22419.0
1698920050.593984,22422.0
1698920050.6144176,22424.0
1698920050.634851,22425.0
1698920050.655285,22427.0
1698920050.6757185,22418.0
1698920050.6961515,22422.0
1698920050.7165852,22421.0
1698920050.7370188,22421.0
1698920050.7574525,22416.0
1698920050.7778854,22423.0
1698920050.798319,22416.0
1698920050.818753,22418.0
1698920050.8391862,22420.0
1698920050.85962,22419.0
1698920050.8800538,22421.0
1698920050.9004867,22415.0
1698920050.9209204,22407.0
1698920050.941354,22419.0
1698920050.9617877,22413.0
1698920050.982221,22416.0
1698920051.0026543,22410.0
1698920051.023088,22395.0
1698920051.0435214,22383.0
1698920051.063955,22397.0
1698920051.084389,22408.0
1698920051.1048224,22407.0
1698920051.1252556,22406.0
1698920051.1456892,22412.0
1698920051.166123,22412.0
1698920051.186556,22414.0
1698920051.2069895,22415.0
1698920051.2274232,22418.0
1698920051.2478569,22408.0
1698920051.2682903,22407.0
1698920051.2887242,22410.0
1698920051.3091576,22410.0
1698920051.3295908,22417.0
1698920051.3500245,22412.0
1698920051.3704581,22413.0
1698920051.3908913,22406.0
1698920051.411325,22402.0
1698920051.4317584,22410.0
1698920051.4521918,22403.0
1698920051.4726255,22407.0
1698920051.4930592,22409.0
1698920051.5134928,22397.0
1698920051.533926,22404.0
1698920051.5543597,22398.0
1698920051.574793,22399.0
1698920051.5952268,22405.0
1698920051.6156602,22401.0
1698920051.6360939,22396.0
1698920051.656527,22401.0
1698920051.6769607,22393.0
1698920051.6973944,22387.0
1698920051.7178278,22396.0
1698920051.7382617,22394.0
1698920051.758695,22397.0
1698920051.7791283,22389.0
1698920051.799562,22385.0
1698920051.8199954,22392.0
1698920051.840429,22390.0
1698920051.8608623,22394.0
1698920051.881296,22391.0
1698920051.9017296,22388.0
1698920051.922163,22389.0
1698920051.9425967,22387.0
1698920051.96303,22377.0
1698920051.9834635,22381.0
1698920052.0038972,22382.0
1698920052.0243306,22381.0
1698920052.044764,22379.0
1698920052.0651977,22383.0
1698920052.0856311,22386.0
1698920052.1060648,22383.0
1698920052.1264982,22383.0
1698920052.146932,22381.0
1698920052.1673653,22389.0
1698920052.1877987,22388.0
1698920052.2082324,22386.0
1698920052.228666,22385.0
1698920052.2490993,22380.0
1698920052.269533,22388.0
1698920052.2899666,22382.0
1698920052.3104,22368.0
1698920052.3308334,22366.0
1698920052.351267,22372.0
1698920052.3717008,22387.0
1698920052.392134,22380.0
1698920052.4125676,22387.0
1698920052.4330013,22384.0
1698920052.4534345,22387.0
1698920052.4738681,22393.0
1698920052.4943018,22388.0
1698920052.5147352,22392.0
1698920052.5351686,22390.0
1698920052.5556023,22392.0
1698920052.576036,22390.0
1698920052.5964692,22402.0
1698920052.6169028,22387.0
1698920052.6373365,22393.0
1698920052.6577697,22399.0
1698920052.6782033,22389.0
1698920052.698637,22392.0
1698920052.7190707,22389.0
1698920052.7395039,22393.0
1698920052.7599375,22384.0
1698920052.7803712,22387.0
1698920052.8008044,22381.0
1698920052.821238,22388.0
1698920052.8416717,22382.0
1698920052.8621051,22388.0
1698920052.8825386,22389.0
1698920052.9029722,22392.0
1698920052.9234056,22392.0
1698920052.943839,22396.0
1698920052.9642727,22400.0
1698920052.9847064,22392.0
1698920053.0051398,22399.0
1698920053.0255733,22400.0
1698920053.046007,22394.0
1698920053.0664403,22387.0
1698920053.0868738,22378.0
1698920053.1073074,22370.0
1698920053.1277409,22368.0
1698920053.1481743,22363.0
1698920053.168608,22360.0
1698920053.1890416,22361.0
1698920053.209475,22364.0
1698920053.2299085,22356.0
1698920053.2503421,22364.0
1698920053.2707756,22361.0
1698920053.291209,22365.0
1698920053.3116426,22377.0
1698920053.332076,22376.0
1698920053.3525097,22380.0
1698920053.3729432,22391.0
1698920053.3933768,22380.0
1698920053.4138103,22393.0
1698920053.4342437,22401.0
1698920053.4546773,22404.0
1698920053.4751108,22412.0
1698920053.4955444,22422.0
1698920053.5159779,22423.0
1698920053.5364113,22430.0
1698920053.556845,22431.0
1698920053.5772784,22432.0
1698920053.5977118,22418.0
1698920053.6181455,22404.0
1698920053.638579,22423.0
1698920053.6590126,22428.0
1698920053.679446,22429.0
1698920053.6998796,22433.0
1698920053.720313,22430.0
1698920053.7407465,22428.0
1698920053.7611802,22428.0
1698920053.7816136,22430.0
1698920053.802047,22426.0
1698920053.8224807,22426.0
1698920053.8429143,22423.0
1698920053.8633478,22422.0
1698920053.8837812,22422.0
1698920053.9042149,22423.0
1698920053.9246483,22423.0
1698920053.9450817,22425.0
1698920053.9655154,22426.0
1698920053.985949,22426.0
1698920054.0063822,22426.0
1698920054.026816,22426.0
1698920054.0472496,22419.0
1698920054.0676827,22422.0
1698920054.0881164,22419.0
1698920054.10855,22414.0
1698920054.1289837,22421.0
1698920054.149417,22412.0
1698920054.1698506,22420.0
1698920054.1902843,22422.0
1698920054.2107174,22421.0
1698920054.231151,22419.0
1698920054.2515848,22416.0
1698920054.272018,22413.0
1698920054.2924516,22410.0
1698920054.3128853,22412.0
1698920054.333319,22418.0
1698920054.3537521,22419.0
1698920054.3741858,22412.0
1698920054.3946195,22413.0
1698920054.4150527,22412.0
1698920054.4354863,22414.0
1698920054.45592,22416.0
1698920054.4763534,22419.0
1698920054.4967868,22414.0
1698920054.5172205,22418.0
1698920054.5376542,22417.0
1698920054.5580873,22417.0
1698920054.578521,22416.0
1698920054.5989547,22410.0
1698920054.619388,22421.0
1698920054.6398215,22417.0
1698920054.6602552,22417.0
1698920054.6806886,22417.0
1698920054.701122,22412.0
1698920054.7215557,22409.0
1698920054.7419894,22415.0
1698920054.7624226,22414.0
1698920054.7828562,22412.0
1698920054.80329,22393.0
1698920054.8237233,22387.0
1698920054.8441567,22389.0
1698920054.8645904,22389.0
1698920054.8850238,22390.0
1698920054.9054573,22388.0
1698920054.925891,22392.0
1698920054.9463243,22386.0
1698920054.966758,22401.0
1698920054.9871914,22400.0
1698920055.007625,22407.0
1698920055.0280585,22401.0
1698920055.048492,22409.0
1698920055.0689256,22417.0
1698920055.089359,22404.0
1698920055.1097927,22410.0
1698920055.1302261,22409.0
1698920055.1506596,22405.0
1698920055.1710932,22403.0
1698920055.1915267,22405.0
1698920055.2119603,22401.0
1698920055.2323937,22400.0
1698920055.2528274,22401.0
1698920055.2732608,22397.0
1698920055.2936943,22390.0
1698920055.314128,22395.0
1698920055.3345613,22388.0
1698920055.3549948,22390.0
1698920055.3754284,22391.0
1698920055.3958619,22387.0
1698920055.4162955,22389.0
1698920055.436729,22395.0
1698920055.4571626,22389.0
1698920055.477596,22393.0
1698920055.4980295,22393.0
1698920055.5184631,22396.0
1698920055.5388966,22407.0
1698920055.55933,22400.0
1698920055.5797637,22406.0
1698920055.6001973,22406.0
1698920055.6206305,22405.0
1698920055.6410642,22405.0
1698920055.6614978,22406.0
1698920055.6819313,22402.0
1698920055.7023647,22411.0
1698920055.7227983,22413.0
1698920055.743232,22403.0
1698920055.7636652,22406.0
1698920055.7840989,22409.0
1698920055.8045325,22396.0
1698920055.8249657,22405.0
1698920055.8453994,22402.0
1698920055.865833,22396.0
1698920055.8862665,22397.0
1698920055.9067,22398.0
1698920055.9271336,22396.0
1698920055.9475672,22398.0
1698920055.9680004,22397.0
1698920055.988434,22393.0
1698920056.0088677,22396.0
1698920056.029301,22393.0
1698920056.0497346,22393.0
1698920056.0701683,22392.0
1698920056.090602,22398.0
1698920056.111035,22396.0
1698920056.1314688,22395.0
1698920056.1519024,22382.0
1698920056.1723356,22366.0
1698920056.1927693,22365.0
1698920056.213203,22377.0
1698920056.2336364,22382.0
1698920056.2540698,22378.0
1698920056.2745035,22389.0
1698920056.294937,22379.0
1698920056.3153703,22383.0
1698920056.335804,22379.0
1698920056.3562376,22376.0
1698920056.376671,22380.0
1698920056.3971045,22377.0
1698920056.4175382,22371.0
1698920056.4379716,22377.0
1698920056.458405,22369.0
1698920056.4788387,22381.0
1698920056.499272,22377.0
1698920056.5197055,22372.0
1698920056.5401392,22382.0
1698920056.5605729,22371.0
1698920056.5810063,22375.0
1698920056.6014397,22380.0
1698920056.6218734,22378.0
1698920056.6423068,22381.0
1698920056.6627402,22382.0
1698920056.683174,22379.0
1698920056.7036073,22377.0
1698920056.724041,22387.0
1698920056.7444744,22380.0
1698920056.764908,22382.0
1698920056.7853415,22384.0
1698920056.805775,22390.0
1698920056.8262086,22387.0
1698920056.846642,22384.0
1698920056.8670757,22381.0
1698920056.887509,22385.0
1698920056.9079425,22380.0
1698920056.9283762,22385.0
1698920056.9488096,22381.0
1698920056.969243,22386.0
1698920056.9896767,22386.0
1698920057.0101101,22389.0
1698920057.0305438,22383.0
1698920057.0509772,22380.0
1698920057.071411,22379.0
1698920057.0918443,22385.0
1698920057.1122777,22383.0
1698920057.1327114,22382.0
1698920057.1531448,22379.0
1698920057.1735783,22388.0
1698920057.194012,22378.0
1698920057.2144456,22384.0
1698920057.234879,22376.0
1698920057.2553124,22380.0
1698920057.275746,22384.0
1698920057.2961795,22387.0
1698920057.316613,22378.0
1698920057.3370466,22383.0
1698920057.3574803,22383.0
1698920057.3779135,22377.0
1698920057.3983471,22381.0
1698920057.4187808,22382.0
1698920057.4392142,22367.0
1698920057.4596477,22360.0
1698920057.4800813,22365.0
1698920057.500515,22377.0
1698920057.5209482,22377.0
1698920057.5413818,22379.0
1698920057.5618155,22382.0
1698920057.5822487,22382.0
1698920057.6026824,22382.0
1698920057.623116,22387.0
1698920057.6435492,22389.0
1698920057.6639829,22385.0
1698920057.6844165,22383.0
1698920057.7048502,22381.0
1698920057.7252834,22391.0
1698920057.745717,22381.0
1698920057.7661507,22387.0
1698920057.786584,22378.0
1698920057.8070176,22384.0
1698920057.8274512,22385.0
1698920057.8478847,22383.0
1698920057.868318,22385.0
1698920057.8887517,22381.0
1698920057.9091854,22385.0
1698920057.9296188,22387.0
1698920057.9500523,22385.0
1698920057.970486,22387.0
1698920057.9909194,22377.0
1698920058.0113528,22384.0
1698920058.0317864,22382.0
1698920058.0522199,22381.0
1698920058.0726533,22381.0
1698920058.093087,22377.0
1698920058.1135206,22381.0
1698920058.133954,22376.0
1698920058.1543877,22381.0
1698920058.1748211,22388.0
1698920058.1952546,22378.0
1698920058.215688,22377.0
1698920058.2361217,22380.0
1698920058.256555,22379.0
1698920058.2769883,22378.0
1698920058.2974222,22380.0
1698920058.3178556,22385.0
1698920058.3382893,22380.0
1698920058.358723,22385.0
1698920058.3791564,22378.0
1698920058.3995898,22383.0
1698920058.4200232,22385.0
1698920058.4404569,22379.0
1698920058.4608903,22381.0
1698920058.481324,22387.0
1698920058.5017571,22381.0
1698920058.5221908,22379.0
1698920058.5426245,22378.0
1698920058.5630581,22377.0
1698920058.5834918,22386.0
1698920058.603925,22376.0
1698920058.6243587,22386.0
1698920058.644792,22378.0
1698920058.6652255,22372.0
1698920058.6856592,22377.0
1698920058.7060924,22372.0
1698920058.7265258,22351.0
1698920058.7469597,22356.0
1698920058.767393,22357.0
1698920058.787827,22361.0
1698920058.8082604,22367.0
1698920058.8286939,22372.0
1698920058.8491273,22377.0
1698920058.8695607,22374.0
1698920058.8899944,22378.0
1698920058.9104276,22374.0
1698920058.930861,22383.0
1698920058.951295,22370.0
1698920058.9717286,22372.0
1698920058.9921622,22370.0
1698920059.0125957,22374.0
1698920059.033029,22371.0
1698920059.0534625,22379.0
1698920059.073896,22373.0
1698920059.0943296,22373.0
1698920059.1147633,22369.0
1698920059.1351962,22369.0
1698920059.1556299,22366.0
1698920059.1760638,22380.0
1698920059.196497,22367.0
1698920059.2169309,22368.0
1698920059.2373645,22366.0
1698920059.2577977,22369.0
1698920059.2782311,22369.0
1698920059.2986648,22366.0
1698920059.3190985,22365.0
1698920059.3395314,22366.0
1698920059.359965,22368.0
1698920059.380399,22367.0
1698920059.4008324,22363.0
1698920059.421266,22365.0
1698920059.4416997,22365.0
1698920059.4621332,22364.0
1698920059.4825664,22363.0
1698920059.5234337,22368.0
1698920059.5438669,22365.0
1698920059.5643003,22376.0
1698920059.584734,22367.0
1698920059.6051674,22366.0
1698920059.625601,22371.0
1698920059.646035,22368.0
1698920059.6664686,22367.0
1698920059.6869016,22373.0
1698920059.7073352,22367.0
1698920059.727769,22374.0
1698920059.7482023,22377.0
1698920059.7686355,22371.0
1698920059.7890692,22369.0
1698920059.8095028,22372.0
1698920059.8299363,22366.0
1698920059.8503702,22365.0
1698920059.8708036,22373.0
1698920059.8912368,22372.0
1698920059.9116704,22363.0
1698920059.932104,22347.0
1698920059.9525375,22343.0
1698920059.972971,22344.0
1698920059.9934044,22350.0
1698920060.0138378,22352.0
1698920060.0342715,22351.0
1698920060.0547051,22350.0
1698920060.0751388,22349.0
1698920060.0955725,22356.0
1698920060.1160057,22367.0
1698920060.1364393,22370.0
1698920060.1568727,22369.0
1698920060.1773062,22369.0
1698920060.1977396,22367.0
1698920060.218173,22371.0
1698920060.238607,22369.0
1698920060.2590404,22380.0
1698920060.279474,22373.0
1698920060.2999077,22376.0
1698920060.3203409,22374.0
1698920060.3407743,22366.0
1698920060.361208,22375.0
1698920060.3816414,22382.0
1698920060.402075,22369.0
1698920060.4225082,22366.0
1698920060.442942,22372.0
1698920060.4633756,22367.0
1698920060.483809,22366.0
1698920060.504243,22371.0
1698920060.524676,22366.0
1698920060.5451095,22367.0
1698920060.5655432,22369.0
1698920060.5859768,22362.0
1698920060.6064103,22370.0
1698920060.6268437,22367.0
1698920060.647277,22366.0
1698920060.6677108,22364.0
1698920060.6881442,22368.0
1698920060.7085779,22364.0
1698920060.7290118,22373.0
1698920060.7494447,22360.0
1698920060.7698784,22368.0
1698920060.790312,22370.0
1698920060.8107455,22370.0
1698920060.831179,22370.0
1698920060.8516123,22370.0
1698920060.872046,22373.0
1698920060.8924794,22369.0
1698920060.912913,22369.0
1698920060.9333467,22364.0
1698920060.95378,22365.0
1698920060.9742136,22374.0
1698920060.9946473,22369.0
1698920061.0150805,22361.0
1698920061.035514,22372.0
1698920061.0559478,22374.0
1698920061.0763812,22370.0
1698920061.0968146,22366.0
1698920061.1172483,22362.0
1698920061.137682,22367.0
1698920061.1581151,22368.0
1698920061.1785488,22366.0
1698920061.1989825,22366.0
1698920061.219416,22364.0
1698920061.2398493,22364.0
1698920061.260283,22369.0
1698920061.2807167,22364.0
1698920061.3011498,22338.0
1698920061.3215835,22338.0
1698920061.3420172,22345.0
1698920061.3624506,22355.0
1698920061.382884,22361.0
1698920061.4033177,22364.0
1698920061.423751,22361.0
1698920061.4441845,22363.0
1698920061.4646182,22363.0
1698920061.4850519,22366.0
1698920061.505485,22373.0
1698920061.5259187,22373.0
1698920061.5463524,22368.0
1698920061.5667858,22362.0
1698920061.5872192,22367.0
1698920061.607653,22364.0
1698920061.6280863,22364.0
1698920061.6485198,22367.0
1698920061.6689534,22364.0
1698920061.6893868,22363.0
1698920061.7098205,22366.0
1698920061.730254,22371.0
1698920061.7506876,22372.0
1698920061.771121,22367.0
1698920061.7915545,22357.0
1698920061.811988,22371.0
1698920061.8324215,22369.0
1698920061.8528552,22363.0
1698920061.8732886,22363.0
1698920061.893722,22374.0
1698920061.9141557,22373.0
1698920061.9345891,22372.0
1698920061.9550228,22375.0
1698920061.9754562,22375.0
1698920061.99589,22370.0
1698920062.0163233,22368.0
1698920062.0367568,22369.0
1698920062.0571904,22373.0
1698920062.0776238,22372.0
1698920062.0980573,22367.0
1698920062.118491,22375.0
1698920062.1389244,22364.0
1698920062.159358,22373.0
1698920062.1797915,22371.0
1698920062.200225,22368.0
1698920062.2206585,22372.0
1698920062.241092,22370.0
1698920062.2615256,22368.0
1698920062.281959,22373.0
1698920062.3023925,22372.0
1698920062.3228261,22376.0
1698920062.3432598,22375.0
1698920062.363693,22378.0
1698920062.3841267,22372.0
1698920062.4045603,22373.0
1698920062.4249938,22377.0
1698920062.4454272,22377.0
1698920062.4658608,22381.0
1698920062.4862945,22381.0
1698920062.5067277,22380.0
1698920062.5271614,22377.0
1698920062.547595,22375.0
1698920062.5680282,22374.0
1698920062.5884619,22352.0
1698920062.6088955,22347.0
1698920062.629329,22360.0
1698920062.6497624,22366.0
1698920062.670196,22364.0
1698920062.6906297,22369.0
1698920062.711063,22378.0
1698920062.7314966,22373.0
1698920062.7519302,22371.0
1698920062.7723634,22368.0
1698920062.792797,22365.0
1698920062.8132308,22372.0
1698920062.8336644,22370.0
1698920062.8540976,22370.0
1698920062.8745313,22376.0
1698920062.894965,22367.0
1698920062.9153981,22366.0
1698920062.9358318,22370.0
1698920062.9562654,22369.0
1698920062.9766989,22365.0
1698920062.9971323,22369.0
1698920063.017566,22363.0
1698920063.0379996,22365.0
1698920063.0584328,22361.0
1698920063.0788665,22357.0
1698920063.0993001,22360.0
1698920063.1197336,22359.0
1698920063.140167,22363.0
1698920063.1606007,22353.0
1698920063.181034,22359.0
1698920063.2014675,22354.0
1698920063.2219012,22353.0
1698920063.2423346,22361.0
1698920063.262768,22351.0
1698920063.2832017,22357.0
1698920063.3036354,22360.0
1698920063.3240688,22356.0
1698920063.3445022,22360.0
1698920063.3649359,22354.0
1698920063.3853693,22360.0
1698920063.4058027,22359.0
1698920063.4262364,22354.0
1698920063.4466698,22364.0
1698920063.4671035,22361.0
1698920063.487537,22361.0
1698920063.5079706,22363.0
1698920063.528404,22357.0
1698920063.5488374,22358.0
1698920063.569271,22352.0
1698920063.5897045,22357.0
1698920063.6101382,22354.0
1698920063.6305716,22357.0
1698920063.651005,22363.0
1698920063.6714387,22362.0
1698920063.6918721,22366.0
1698920063.7123055,22359.0
1698920063.7327392,22357.0
1698920063.7531726,22363.0
1698920063.7736063,22359.0
1698920063.7940397,22360.0
1698920063.8144734,22365.0
1698920063.8349068,22364.0
1698920063.8553402,22357.0
1698920063.875774,22349.0
1698920063.8962073,22341.0
1698920063.9166408,22355.0
1698920063.9370744,22365.0
1698920063.957508,22361.0
1698920063.9779415,22365.0
1698920063.998375,22363.0
1698920064.0188086,22368.0
1698920064.039242,22360.0
1698920064.0596755,22369.0
1698920064.0801091,22363.0
1698920064.1005428,22367.0
1698920064.120976,22369.0
1698920064.1414096,22370.0
1698920064.1618433,22368.0
1698920064.1822767,22364.0
1698920064.2027102,22364.0
1698920064.2231438,22362.0
1698920064.2435775,22360.0
1698920064.2640107,22362.0
1698920064.2844443,22361.0
1698920064.304878,22363.0
1698920064.3253112,22363.0
1698920064.3457448,22359.0
1698920064.3661785,22359.0
1698920064.3866117,22364.0
1698920064.4070454,22360.0
1698920064.427479,22361.0
1698920064.4479127,22360.0
1698920064.4683459,22363.0
1698920064.4887795,22367.0
1698920064.5092132,22364.0
1698920064.5296464,22358.0
1698920064.55008,22369.0
1698920064.5705137,22367.0
1698920064.5909472,22365.0
1698920064.6113806,22366.0
1698920064.6318142,22367.0
1698920064.652248,22367.0
1698920064.672681,22365.0
1698920064.6931148,22367.0
1698920064.7135484,22363.0
1698920064.7339818,22358.0
1698920064.7544153,22360.0
1698920064.774849,22361.0
1698920064.7952824,22355.0
1698920064.8157158,22359.0
1698920064.8361495,22361.0
1698920064.856583,22355.0
1698920064.8770163,22361.0
1698920064.89745,22363.0
1698920064.9178836,22353.0
1698920064.938317,22351.0
1698920064.9587505,22361.0
1698920064.9791842,22350.0
1698920064.9996176,22360.0
1698920065.020051,22350.0
1698920065.0404847,22354.0
1698920065.0609183,22345.0
1698920065.0813518,22332.0
1698920065.1017852,22338.0
1698920065.1222188,22337.0
1698920065.1426523,22330.0
1698920065.1630857,22332.0
1698920065.1835194,22333.0
1698920065.2039528,22332.0
1698920065.2243865,22339.0
1698920065.2448199,22337.0
1698920065.2652533,22347.0
1698920065.285687,22342.0
1698920065.3061204,22347.0
1698920065.326554,22346.0
1698920065.3469875,22354.0
1698920065.3674212,22351.0
1698920065.3878546,22351.0
1698920065.408288,22347.0
1698920065.4287217,22351.0
1698920065.449155,22337.0
1698920065.4695885,22337.0
1698920065.4900222,22331.0
1698920065.5104556,22329.0
1698920065.5308893,22329.0
1698920065.5513227,22322.0
1698920065.5717564,22318.0
1698920065.5921898,22322.0
1698920065.6126232,22316.0
1698920065.6330569,22316.0
1698920065.6534903,22308.0
1698920065.6739237,22309.0
1698920065.6943574,22309.0
1698920065.714791,22302.0
1698920065.7352242,22299.0
1698920065.755658,22296.0
1698920065.7760916,22296.0
1698920065.796525,22296.0
1698920065.8169584,22292.0
1698920065.837392,22293.0
1698920065.8578258,22296.0
1698920065.878259,22302.0
1698920065.8986926,22298.0
1698920065.9191263,22304.0
1698920065.9395595,22313.0
1698920065.9599931,22307.0
1698920065.9804268,22301.0
1698920066.0008602,22309.0
1698920066.0212936,22306.0
1698920066.0417273,22300.0
1698920066.062161,22300.0
1698920066.0825942,22295.0
1698920066.1030278,22296.0
1698920066.1234615,22282.0
1698920066.1438947,22289.0
1698920066.1643283,22283.0
1698920066.184762,22277.0
1698920066.2051957,22276.0
1698920066.2256289,22276.0
1698920066.2460625,22274.0
1698920066.2664962,22280.0
1698920066.2869294,22275.0
1698920066.307363,22268.0
1698920066.3277967,22263.0
1698920066.3482301,22266.0
1698920066.3686635,22275.0
1698920066.3890972,22263.0
1698920066.4095309,22246.0
1698920066.429964,22246.0
1698920066.4503977,22251.0
1698920066.4708314,22249.0
1698920066.4912648,22256.0
1698920066.5116982,22267.0
1698920066.532132,22272.0
1698920066.5525653,22279.0
1698920066.5729988,22278.0
1698920066.5934324,22283.0
1698920066.6138659,22288.0
1698920066.6342993,22283.0
1698920066.654733,22289.0
1698920066.6751666,22289.0
1698920066.6956,22290.0
1698920066.7160335,22287.0
1698920066.7364671,22286.0
1698920066.7569005,22290.0
1698920066.777334,22289.0
1698920066.7977676,22286.0
1698920066.818201,22286.0
1698920066.8386347,22293.0
1698920066.8590682,22292.0
1698920066.8795018,22294.0
1698920066.8999352,22295.0
1698920066.920369,22301.0
1698920066.9408023,22310.0
1698920066.9612358,22305.0
1698920066.9816694,22306.0
1698920067.0021029,22315.0
1698920067.0225363,22314.0
1698920067.04297,22324.0
1698920067.0634034,22319.0
1698920067.083837,22316.0
1698920067.1042705,22325.0
1698920067.1247041,22329.0
1698920067.1451378,22323.0
1698920067.165571,22326.0
1698920067.1860046,22324.0
1698920067.206438,22329.0
1698920067.2268715,22330.0
1698920067.2473052,22324.0
1698920067.2677383,22333.0
1698920067.288172,22329.0
1698920067.3086057,22333.0
1698920067.3290393,22328.0
1698920067.349473,22329.0
1698920067.3699062,22332.0
1698920067.3903399,22332.0
1698920067.4107733,22339.0
1698920067.4312067,22334.0
1698920067.4516404,22339.0
1698920067.472074,22334.0
1698920067.492507,22341.0
1698920067.512941,22334.0
1698920067.5333745,22340.0
1698920067.5538082,22343.0
1698920067.5742416,22339.0
1698920067.594675,22341.0
1698920067.6151087,22342.0
1698920067.635542,22338.0
1698920067.6559756,22348.0
1698920067.6764092,22342.0
1698920067.6968422,22342.0
1698920067.7172759,22324.0
1698920067.7377098,22330.0
1698920067.758143,22327.0
1698920067.7785769,22345.0
1698920067.7990105,22350.0
1698920067.819444,22352.0
1698920067.8398771,22358.0
1698920067.8603108,22350.0
1698920067.8807445,22354.0
1698920067.9011774,22359.0
1698920067.921611,22357.0
1698920067.942045,22359.0
1698920067.9624784,22370.0
1698920067.982912,22359.0
1698920068.0033457,22362.0
1698920068.0237792,22362.0
1698920068.0442123,22361.0
1698920068.064646,22361.0
1698920068.0850797,22362.0
1698920068.105513,22364.0
1698920068.1259463,22359.0
1698920068.14638,22360.0
1698920068.1668136,22364.0
1698920068.187247,22363.0
1698920068.207681,22360.0
1698920068.2281146,22354.0
1698920068.2485476,22359.0
1698920068.2689812,22359.0
1698920068.289415,22363.0
1698920068.3098483,22356.0
1698920068.3302815,22359.0
1698920068.3507152,22356.0
1698920068.3711488,22367.0
1698920068.3915825,22361.0
1698920068.4120162,22366.0
1698920068.4324498,22364.0
1698920068.452883,22358.0
1698920068.4733164,22360.0
1698920068.49375,22354.0
1698920068.5141835,22358.0
1698920068.534617,22354.0
1698920068.5550504,22358.0
1698920068.5754838,22354.0
1698920068.5959175,22363.0
1698920068.6163511,22353.0
1698920068.636785,22356.0
1698920068.6572185,22355.0
1698920068.6776516,22354.0
1698920068.6980853,22360.0
1698920068.7185187,22357.0
1698920068.7389524,22356.0
1698920068.7593856,22353.0
1698920068.779819,22359.0
1698920068.800253,22358.0
1698920068.8206863,22355.0
1698920068.84112,22357.0
1698920068.8615537,22360.0
1698920068.8819869,22358.0
1698920068.9024205,22353.0
1698920068.922854,22354.0
1698920068.9432876,22359.0
1698920068.963721,22338.0
1698920068.9841542,22334.0
1698920069.004588,22332.0
1698920069.0250216,22332.0
1698920069.045455,22332.0
1698920069.065889,22342.0
1698920069.0863225,22347.0
1698920069.1067557,22344.0
1698920069.1271892,22349.0
1698920069.1476228,22350.0
1698920069.1680562,22354.0
1698920069.1884894,22344.0
1698920069.208923,22347.0
1698920069.229357,22353.0
1698920069.2497902,22343.0
1698920069.270224,22343.0
1698920069.2906578,22347.0
1698920069.3110907,22352.0
1698920069.3315244,22357.0
1698920069.351958,22351.0
1698920069.3723915,22336.0
1698920069.392825,22344.0
1698920069.4132583,22336.0
1698920069.433692,22341.0
1698920069.4541254,22343.0
1698920069.474559,22334.0
1698920069.494993,22339.0
1698920069.515426,22330.0
1698920069.5358596,22334.0
1698920069.5562932,22331.0
1698920069.576727,22328.0
1698920069.59716,22326.0
1698920069.6175938,22325.0
1698920069.6380272,22323.0
1698920069.6584606,22330.0
1698920069.6788943,22327.0
1698920069.699328,22323.0
1698920069.7197616,22323.0
1698920069.7401948,22324.0
1698920069.7606285,22320.0
1698920069.7810621,22319.0
1698920069.8014953,22322.0
1698920069.821929,22316.0
1698920069.8423624,22318.0
1698920069.8627958,22322.0
1698920069.8832295,22317.0
1698920069.9036632,22314.0
1698920069.9240966,22314.0
1698920069.94453,22312.0
1698920069.9649637,22308.0
1698920069.985397,22305.0
1698920070.0058305,22309.0
1698920070.0262642,22310.0
1698920070.0466979,22308.0
1698920070.067131,22308.0
1698920070.0875647,22312.0
1698920070.1079984,22314.0
1698920070.1284318,22308.0
1698920070.1488652,22300.0
1698920070.169299,22303.0
1698920070.1897323,22294.0
1698920070.210166,22271.0
1698920070.2305994,22274.0
1698920070.251033,22272.0
1698920070.2714665,22264.0
1698920070.2919,22270.0
1698920070.3123336,22267.0
1698920070.332767,22267.0
1698920070.3532007,22270.0
1698920070.373634,22274.0
1698920070.3940675,22277.0
1698920070.4145012,22274.0
1698920070.4349346,22278.0
1698920070.4553683,22267.0
1698920070.4758017,22262.0
1698920070.4962351,22266.0
1698920070.5166688,22276.0
1698920070.5371022,22276.0
1698920070.557536,22282.0
1698920070.5779693,22291.0
1698920070.5984027,22294.0
1698920070.6188364,22296.0
1698920070.6392698,22299.0
1698920070.6597033,22297.0
1698920070.680137,22297.0
1698920070.7005706,22301.0
1698920070.721004,22301.0
1698920070.7414374,22307.0
1698920070.761871,22307.0
1698920070.7823045,22308.0
1698920070.802738,22311.0
1698920070.8231716,22308.0
1698920070.8436053,22305.0
1698920070.8640385,22310.0
1698920070.8844721,22304.0
1698920070.9049058,22302.0
1698920070.9253392,22306.0
1698920070.9457726,22307.0
1698920070.9662063,22302.0
1698920070.98664,22304.0
1698920071.0070732,22300.0
1698920071.0275068,22296.0
1698920071.0479405,22302.0
1698920071.0683737,22297.0
1698920071.0888073,22288.0
1698920071.109241,22287.0
1698920071.1296744,22281.0
1698920071.1501079,22281.0
1698920071.1705415,22288.0
1698920071.1909752,22285.0
1698920071.2114084,22288.0
1698920071.231842,22282.0
1698920071.2522757,22277.0
1698920071.272709,22273.0
1698920071.2931426,22265.0
1698920071.3135762,22271.0
1698920071.3340096,22268.0
1698920071.354443,22285.0
1698920071.3748767,22279.0
1698920071.3953104,22288.0
1698920071.4157436,22292.0
1698920071.4361773,22296.0
1698920071.456611,22309.0
1698920071.4770443,22314.0
1698920071.4974778,22314.0
1698920071.5179114,22316.0
1698920071.5383449,22310.0
1698920071.5587783,22304.0
1698920071.579212,22296.0
1698920071.5996456,22288.0
1698920071.6200788,22293.0
1698920071.6405125,22296.0
1698920071.6609461,22293.0
1698920071.6813796,22287.0
1698920071.701813,22280.0
1698920071.7222466,22272.0
1698920071.74268,22275.0
1698920071.7631135,22273.0
1698920071.7835472,22272.0
1698920071.8039808,22277.0
1698920071.8244143,22280.0
1698920071.8448477,22276.0
1698920071.8652813,22285.0
1698920071.8857148,22287.0
1698920071.9061482,22283.0
1698920071.9265819,22295.0
1698920071.9470153,22304.0
1698920071.967449,22308.0
1698920071.9878824,22307.0
1698920072.0083158,22319.0
1698920072.0287495,22318.0
1698920072.049183,22331.0
1698920072.0696166,22335.0
1698920072.09005,22341.0
1698920072.1104836,22346.0
1698920072.130917,22352.0
1698920072.1513505,22367.0
1698920072.1717842,22367.0
1698920072.1922176,22384.0
1698920072.212651,22390.0
1698920072.2330847,22401.0
1698920072.253518,22402.0
1698920072.2739518,22416.0
1698920072.2943852,22422.0
1698920072.3148189,22426.0
1698920072.3352523,22428.0
1698920072.3556857,22437.0
1698920072.3761194,22443.0
1698920072.3965528,22449.0
1698920072.4169862,22451.0
1698920072.43742,22459.0
1698920072.4578536,22459.0
1698920072.478287,22463.0
1698920072.4987204,22465.0
1698920072.519154,22472.0
1698920072.5395875,22477.0
1698920072.560021,22476.0
1698920072.5804546,22480.0
1698920072.6008883,22490.0
1698920072.6213214,22487.0
1698920072.641755,22489.0
1698920072.6621888,22493.0
1698920072.682622,22494.0
1698920072.7030556,22494.0
1698920072.7234893,22496.0
1698920072.7439227,22498.0
1698920072.7643561,22500.0
1698920072.7847898,22495.0
1698920072.8052235,22496.0
1698920072.8256567,22503.0
1698920072.8460903,22491.0
1698920072.866524,22470.0
1698920072.8869572,22471.0
1698920072.9073908,22478.0
1698920072.9278245,22483.0
1698920072.9482582,22490.0
1698920072.9686913,22493.0
1698920072.989125,22488.0
1698920073.0095587,22492.0
1698920073.0299919,22490.0
1698920073.0504255,22488.0
1698920073.0708592,22491.0
1698920073.0912926,22491.0
1698920073.111726,22499.0
1698920073.1321597,22499.0
1698920073.1525934,22490.0
1698920073.1730266,22499.0
1698920073.1934602,22495.0
1698920073.213894,22505.0
1698920073.2343273,22499.0
1698920073.2547607,22500.0
1698920073.2751944,22504.0
1698920073.2956278,22499.0
1698920073.3160613,22497.0
1698920073.336495,22497.0
1698920073.3569283,22497.0
1698920073.3773618,22492.0
1698920073.3977954,22496.0
1698920073.418229,22496.0
1698920073.4386625,22489.0
1698920073.459096,22485.0
1698920073.4795296,22480.0
1698920073.499963,22483.0
1698920073.5203965,22479.0
1698920073.5408301,22476.0
1698920073.5612636,22469.0
1698920073.5816972,22478.0
1698920073.6021307,22471.0
1698920073.6225643,22467.0
1698920073.6429977,22471.0
1698920073.6634312,22470.0
1698920073.6838648,22466.0
1698920073.7042983,22465.0
1698920073.724732,22468.0
1698920073.7451653,22476.0
1698920073.7655988,22474.0
1698920073.7860324,22469.0
1698920073.8064659,22478.0
1698920073.8268995,22480.0
1698920073.847333,22482.0
1698920073.8677664,22487.0
1698920073.8882,22488.0
1698920073.9086335,22489.0
1698920073.9290671,22487.0
1698920073.9495006,22490.0
1698920073.969934,22490.0
1698920073.9903677,22497.0
1698920074.010801,22485.0
1698920074.0312345,22496.0
1698920074.0516682,22490.0
1698920074.0721018,22486.0
1698920074.0925353,22486.0
1698920074.1129687,22467.0
1698920074.1334023,22458.0
1698920074.1538358,22458.0
1698920074.1742692,22463.0
1698920074.1947029,22472.0
1698920074.2151365,22469.0
1698920074.2355697,22477.0
1698920074.2560034,22475.0
1698920074.276437,22479.0
1698920074.2968705,22482.0
1698920074.317304,22487.0
1698920074.3377376,22478.0
1698920074.3581712,22480.0
1698920074.3786044,22479.0
1698920074.399038,22478.0
1698920074.4194717,22487.0
1698920074.439905,22479.0
1698920074.4603386,22479.0
1698920074.4807723,22478.0
1698920074.5012057,22486.0
1698920074.521639,22481.0
1698920074.5420728,22486.0
1698920074.5625064,22482.0
1698920074.5829396,22484.0
1698920074.6033733,22484.0
1698920074.623807,22484.0
1698920074.6442401,22481.0
1698920074.6646738,22487.0
1698920074.6851075,22484.0
1698920074.7055411,22480.0
1698920074.7259743,22491.0
1698920074.746408,22478.0
1698920074.7668417,22475.0
1698920074.7872748,22473.0
1698920074.8077085,22471.0
1698920074.8281422,22472.0
1698920074.8485756,22464.0
1698920074.869009,22469.0
1698920074.8894427,22463.0
1698920074.909876,22465.0
1698920074.9303095,22466.0
1698920074.9507432,22465.0
1698920074.9711769,22466.0
1698920074.99161,22462.0
1698920075.0120437,22467.0
1698920075.0324774,22465.0
1698920075.0529108,22466.0
1698920075.0733442,22462.0
1698920075.093778,22464.0
1698920075.1142113,22468.0
1698920075.1346447,22469.0
1698920075.1550784,22469.0
1698920075.175512,22457.0
1698920075.1959455,22466.0
1698920075.216379,22468.0
1698920075.2368126,22469.0
1698920075.257246,22473.0
1698920075.2776794,22465.0
1698920075.298113,22476.0
1698920075.3185465,22465.0
1698920075.3389802,22452.0
1698920075.3594136,22448.0
1698920075.379847,22452.0
1698920075.4002807,22445.0
1698920075.4207141,22449.0
1698920075.4411478,22447.0
1698920075.4615812,22441.0
1698920075.482015,22449.0
1698920075.5024483,22445.0
1698920075.5228817,22455.0
1698920075.5433154,22459.0
1698920075.5637488,22459.0
1698920075.5841823,22461.0
1698920075.604616,22459.0
1698920075.6250494,22457.0
1698920075.645483,22452.0
1698920075.6659164,22459.0
1698920075.68635,22457.0
1698920075.7067835,22469.0
1698920075.727217,22467.0
1698920075.7476506,22463.0
1698920075.768084,22478.0
1698920075.7885175,22463.0
1698920075.8089511,22465.0
1698920075.8293848,22461.0
1698920075.8498182,22458.0
1698920075.8702517,22456.0
1698920075.8906853,22462.0
1698920075.911119,22461.0
1698920075.9315522,22458.0
1698920075.9519858,22459.0
1698920075.9724195,22455.0
1698920075.9928527,22457.0
1698920076.0132864,22456.0
1698920076.03372,22451.0
1698920076.0541532,22458.0
1698920076.0745869,22454.0
1698920076.0950205,22452.0
1698920076.1154542,22451.0
1698920076.1358876,22453.0
1698920076.156321,22458.0
1698920076.1767547,22457.0
1698920076.197188,22466.0
1698920076.2176216,22458.0
1698920076.2380552,22460.0
1698920076.2584882,22463.0
1698920076.278922,22477.0
1698920076.2993557,22471.0
1698920076.3197894,22475.0
1698920076.3402228,22467.0
1698920076.3606563,22473.0
1698920076.38109,22473.0
1698920076.401523,22470.0
1698920076.4219568,22468.0
1698920076.4423904,22471.0
1698920076.4628239,22463.0
1698920076.483257,22461.0
1698920076.503691,22466.0
1698920076.5241246,22460.0
1698920076.544558,22454.0
1698920076.5649917,22457.0
1698920076.5854251,22457.0
1698920076.6058586,22452.0
1698920076.626292,22455.0
1698920076.6467257,22461.0
1698920076.667159,22469.0
1698920076.6875923,22450.0
1698920076.708026,22441.0
1698920076.7284598,22438.0
1698920076.748893,22443.0
1698920076.769327,22459.0
1698920076.7897606,22451.0
1698920076.8101938,22458.0
1698920076.8306272,22457.0
1698920076.8510609,22461.0
1698920076.8714943,22464.0
1698920076.8919275,22464.0
1698920076.9123611,22466.0
1698920076.9327948,22466.0
1698920076.9532285,22472.0
1698920076.9736621,22470.0
1698920076.9940958,22469.0
1698920077.014529,22466.0
1698920077.0349624,22461.0
1698920077.055396,22470.0
1698920077.0758295,22460.0
1698920077.0962632,22460.0
1698920077.1166964,22463.0
1698920077.1371298,22466.0
1698920077.1575637,22460.0
1698920077.177997,22466.0
1698920077.198431,22462.0
1698920077.2188644,22463.0
1698920077.2392976,22466.0
1698920077.2597313,22459.0
1698920077.2801647,22467.0
1698920077.3005984,22458.0
1698920077.3210316,22453.0
1698920077.341465,22460.0
1698920077.361899,22461.0
1698920077.3823326,22444.0
1698920077.4027662,22442.0
1698920077.4231997,22451.0
1698920077.443633,22446.0
1698920077.4640665,22445.0
1698920077.4845,22454.0
1698920077.5049336,22438.0
1698920077.525367,22436.0
1698920077.5458002,22439.0
1698920077.5662339,22434.0
1698920077.5866675,22434.0
1698920077.607101,22432.0
1698920077.6275349,22438.0
1698920077.6479685,22434.0
1698920077.6684017,22437.0
1698920077.6888351,22432.0
1698920077.7092688,22432.0
1698920077.7297025,22431.0
1698920077.7501354,22430.0
1698920077.770569,22436.0
1698920077.791003,22433.0
1698920077.8114362,22433.0
1698920077.83187,22438.0
1698920077.8523037,22433.0
1698920077.872737,22432.0
1698920077.8931704,22429.0
1698920077.913604,22432.0
1698920077.9340377,22437.0
1698920077.9544709,22434.0
1698920077.9749043,22435.0
1698920077.995338,22418.0
1698920078.0157714,22410.0
1698920078.036205,22418.0
1698920078.056639,22421.0
1698920078.0770726,22432.0
1698920078.0975056,22427.0
1698920078.1179392,22432.0
1698920078.138373,22425.0
1698920078.158806,22423.0
1698920078.1792395,22429.0
1698920078.1996732,22421.0
1698920078.2201068,22423.0
1698920078.2405403,22423.0
1698920078.2609742,22429.0
1698920078.2814078,22421.0
1698920078.3018408,22424.0
1698920078.3222744,22412.0
1698920078.342708,22424.0
1698920078.3631413,22424.0
1698920078.383575,22425.0
1698920078.4040084,22425.0
1698920078.4244418,22419.0
1698920078.4448755,22424.0
1698920078.4653091,22428.0
1698920078.4857428,22429.0
1698920078.506176,22421.0
1698920078.5266097,22416.0
1698920078.5470433,22424.0
1698920078.5674767,22423.0
1698920078.5879102,22414.0
1698920078.6083438,22424.0
1698920078.628777,22416.0
1698920078.6492107,22418.0
1698920078.6696444,22407.0
1698920078.6900778,22400.0
1698920078.7105117,22403.0
1698920078.7309449,22401.0
1698920078.7513785,22394.0
1698920078.771812,22385.0
1698920078.7922454,22387.0
1698920078.812679,22382.0
1698920078.8331122,22378.0
1698920078.853546,22378.0
1698920078.8739796,22382.0
1698920078.894413,22378.0
1698920078.9148467,22380.0
1698920078.93528,22377.0
1698920078.9557135,22382.0
1698920078.9761472,22376.0
1698920078.9965806,22386.0
1698920079.0170143,22380.0
1698920079.0374477,22386.0
1698920079.057881,22374.0
1698920079.0783148,22377.0
1698920079.0987482,22387.0
1698920079.1191819,22382.0
1698920079.1396153,22385.0
1698920079.1600487,22382.0
1698920079.1804824,22385.0
1698920079.200916,22380.0
1698920079.2213495,22388.0
1698920079.241783,22379.0
1698920079.2622166,22364.0
1698920079.28265,22361.0
1698920079.3030834,22359.0
1698920079.323517,22363.0
1698920079.3439507,22370.0
1698920079.364384,22372.0
1698920079.3848176,22369.0
1698920079.4052513,22367.0
1698920079.4256845,22373.0
1698920079.446118,22369.0
1698920079.4665518,22374.0
1698920079.4869852,22371.0
1698920079.5074186,22368.0
1698920079.5278523,22363.0
1698920079.548286,22369.0
1698920079.5687191,22375.0
1698920079.5891528,22366.0
1698920079.6095865,22376.0
1698920079.6300197,22368.0
1698920079.6504533,22366.0
1698920079.670887,22371.0
1698920079.6913207,22370.0
1698920079.7117538,22369.0
1698920079.7321875,22371.0
1698920079.7526212,22375.0
1698920079.7730544,22372.0
1698920079.793488,22366.0
1698920079.8139217,22375.0
1698920079.834355,22366.0
1698920079.8547885,22365.0
1698920079.8752222,22370.0
1698920079.8956559,22371.0
1698920079.916089,22365.0
1698920079.9365227,22364.0
1698920079.9569564,22371.0
1698920079.9773898,22361.0
1698920079.9978232,22364.0
1698920080.018257,22359.0
1698920080.0386903,22357.0
1698920080.0591238,22365.0
1698920080.0795574,22361.0
1698920080.099991,22358.0
1698920080.1204243,22356.0
1698920080.140858,22358.0
1698920080.1612916,22349.0
1698920080.181725,22351.0
1698920080.2021585,22356.0
1698920080.222592,22350.0
1698920080.2430255,22340.0
1698920080.263459,22341.0
1698920080.2838926,22340.0
1698920080.304326,22343.0
1698920080.3247597,22338.0
1698920080.3451931,22331.0
1698920080.3656268,22330.0
1698920080.3860602,22337.0
1698920080.4064937,22324.0
1698920080.4269273,22331.0
1698920080.4473608,22329.0
1698920080.4677944,22331.0
1698920080.4882278,22336.0
1698920080.5086613,22339.0
1698920080.529095,22347.0
1698920080.5495284,22344.0
1698920080.569962,22327.0
1698920080.5903955,22321.0
1698920080.6108289,22336.0
1698920080.6312625,22343.0
1698920080.651696,22337.0
1698920080.6721296,22344.0
1698920080.692563,22338.0
1698920080.7129965,22342.0
1698920080.7334301,22334.0
1698920080.7538636,22347.0
1698920080.7742972,22345.0
1698920080.7947307,22350.0
1698920080.8151643,22341.0
1698920080.8355978,22349.0
1698920080.8560312,22349.0
1698920080.8764648,22344.0
1698920080.8968983,22344.0
1698920080.9173317,22343.0
1698920080.9377654,22346.0
1698920080.958199,22349.0
1698920080.9786322,22340.0
1698920080.9990659,22351.0
1698920081.0194995,22344.0
1698920081.039933,22348.0
1698920081.0603664,22349.0
1698920081.0808,22344.0
1698920081.1012337,22345.0
1698920081.121667,22344.0
1698920081.1421006,22343.0
1698920081.1625342,22343.0
1698920081.1829674,22343.0
1698920081.203401,22340.0
1698920081.2238348,22342.0
1698920081.2442682,22353.0
1698920081.2647016,22346.0
1698920081.2851353,22355.0
1698920081.305569,22357.0
1698920081.3260021,22353.0
1698920081.3464358,22349.0
1698920081.3668694,22347.0
1698920081.3873026,22360.0
1698920081.4077363,22359.0
1698920081.42817,22358.0
1698920081.4486036,22363.0
1698920081.4690368,22366.0
1698920081.4894705,22375.0
1698920081.5099041,22381.0
1698920081.5303373,22389.0
1698920081.550771,22391.0
1698920081.5712047,22396.0
1698920081.591638,22397.0
1698920081.6120715,22407.0
1698920081.6325052,22409.0
1698920081.6529386,22418.0
1698920081.673372,22434.0
1698920081.6938057,22429.0
1698920081.7142394,22438.0
1698920081.7346725,22436.0
1698920081.7551062,22443.0
1698920081.7755399,22438.0
1698920081.7959733,22438.0
1698920081.8164067,22443.0
1698920081.8368404,22431.0
1698920081.8572738,22420.0
1698920081.8777072,22429.0
1698920081.898141,22449.0
1698920081.9185746,22473.0
1698920081.939008,22491.0
1698920081.9594414,22513.0
1698920081.979875,22533.0
1698920082.0003085,22554.0
1698920082.020742,22558.0
1698920082.0411756,22562.0
1698920082.061609,22561.0
1698920082.0820427,22570.0
1698920082.1024761,22568.0
1698920082.1229098,22570.0
1698920082.1433432,22567.0
1698920082.1637766,22578.0
1698920082.1842103,22563.0
1698920082.2046437,22568.0
1698920082.2250774,22569.0
1698920082.2455108,22570.0
1698920082.2659442,22568.0
1698920082.286378,22566.0
1698920082.3068113,22565.0
1698920082.3272448,22562.0
1698920082.3476784,22561.0
1698920082.3681118,22556.0
1698920082.3885455,22551.0
1698920082.408979,22546.0
1698920082.4294126,22541.0
1698920082.449846,22537.0
1698920082.4702795,22531.0
1698920082.4907131,22535.0
1698920082.5111465,22554.0
1698920082.53158,22586.0
1698920082.5520136,22595.0
1698920082.5724473,22607.0
1698920082.5928807,22605.0
1698920082.6133142,22622.0
1698920082.6337478,22635.0
1698920082.6541812,22655.0
1698920082.6746147,22676.0
1698920082.6950483,22701.0
1698920082.715482,22729.0
1698920082.7359152,22759.0
1698920082.7563488,22797.0
1698920082.7767825,22835.0
1698920082.797216,22858.0
1698920082.8176494,22881.0
1698920082.838083,22898.0
1698920082.8585165,22918.0
1698920082.8789499,22933.0
1698920082.8993835,22946.0
1698920082.9198172,22966.0
1698920082.9402504,22991.0
1698920082.960684,23012.0
1698920082.9811177,23037.0
1698920083.001551,23066.0
1698920083.0219846,23074.0
1698920083.0424182,23073.0
1698920083.062852,23080.0
1698920083.083285,23092.0
1698920083.1037188,23095.0
1698920083.1241524,23099.0
1698920083.1445856,23081.0
1698920083.1650193,23083.0
1698920083.185453,23070.0
1698920083.2058864,23077.0
1698920083.2263198,23080.0
1698920083.2467535,23074.0
1698920083.267187,23083.0
1698920083.2876203,23092.0
1698920083.308054,23098.0
1698920083.3284876,23111.0
1698920083.348921,23111.0
1698920083.3693545,23115.0
1698920083.3897882,23117.0
1698920083.4102216,23119.0
1698920083.430655,23132.0
1698920083.4510887,23134.0
1698920083.4715223,23140.0
1698920083.4919555,23143.0
1698920083.5123892,23146.0
1698920083.5328228,23147.0
1698920083.5532563,23157.0
1698920083.5736897,23163.0
1698920083.5941234,23173.0
1698920083.6145568,23179.0
1698920083.6349902,23180.0
1698920083.6554239,23182.0
1698920083.6758573,23188.0
1698920083.696291,23193.0
1698920083.7167244,23203.0
1698920083.737158,23203.0
1698920083.7575915,23205.0
1698920083.778025,23209.0
1698920083.7984586,23217.0
1698920083.818892,23211.0
1698920083.8393257,23217.0
1698920083.859759,23223.0
1698920083.8801925,23242.0
1698920083.9006262,23242.0
1698920083.9210596,23245.0
1698920083.9414933,23249.0
1698920083.9619267,23248.0
1698920083.9823601,23253.0
1698920084.0027938,23255.0
1698920084.0232272,23263.0
1698920084.0436609,23260.0
1698920084.0640943,23266.0
1698920084.0845277,23260.0
1698920084.1049614,23269.0
1698920084.1253948,23266.0
1698920084.1458285,23266.0
1698920084.166262,23257.0
1698920084.1866956,23258.0
1698920084.207129,23265.0
1698920084.2275624,23265.0
1698920084.247996,23276.0
1698920084.2684295,23270.0
1698920084.288863,23273.0
1698920084.3092966,23280.0
1698920084.3297303,23258.0
1698920084.3501635,23246.0
1698920084.3705971,23250.0
1698920084.3910308,23252.0
1698920084.4114642,23254.0
1698920084.4318976,23253.0
1698920084.4523313,23255.0
1698920084.472765,23266.0
1698920084.4931982,23268.0
1698920084.5136318,23276.0
1698920084.5340655,23293.0
1698920084.5544987,23283.0
1698920084.5749323,23293.0
1698920084.595366,23293.0
1698920084.6157994,23295.0
1698920084.6362329,23296.0
1698920084.6566665,23291.0
1698920084.6771002,23303.0
1698920084.6975334,23294.0
1698920084.717967,23290.0
1698920084.7384007,23292.0
1698920084.758834,23280.0
1698920084.7792675,23282.0
1698920084.7997012,23283.0
1698920084.8201349,23282.0
1698920084.840568,23279.0
1698920084.8610017,23275.0
1698920084.8814354,23282.0
1698920084.9018688,23275.0
1698920084.9223022,23271.0
1698920084.942736,23274.0
1698920084.9631693,23273.0
1698920084.9836028,23279.0
1698920085.0040364,23275.0
1698920085.0244699,23273.0
1698920085.0449033,23275.0
1698920085.065337,23263.0
1698920085.0857706,23254.0
1698920085.106204,23240.0
1698920085.1266377,23244.0
1698920085.1470711,23230.0
1698920085.1675045,23208.0
1698920085.187938,23180.0
1698920085.2083716,23166.0
1698920085.228805,23150.0
1698920085.2492383,23136.0
1698920085.2696722,23114.0
1698920085.2901058,23080.0
1698920085.3105392,23035.0
1698920085.330973,23004.0
1698920085.3514063,22961.0
1698920085.3718398,22932.0
1698920085.3922732,22906.0
1698920085.4127069,22878.0
1698920085.4331403,22860.0
1698920085.453574,22852.0
1698920085.4740071,22840.0
1698920085.494441,22837.0
1698920085.5148745,22836.0
1698920085.5353081,22844.0
1698920085.5557418,22849.0
1698920085.576175,22847.0
1698920085.5966086,22848.0
1698920085.617042,22843.0
1698920085.6374755,22856.0
1698920085.6579092,22846.0
1698920085.6783423,22846.0
1698920085.6987758,22848.0
1698920085.7192097,22874.0
1698920085.739643,22921.0
1698920085.760077,22952.0
1698920085.7805104,22968.0
1698920085.8009439,22974.0
1698920085.8213773,22967.0
1698920085.8418107,22973.0
1698920085.8622444,22996.0
1698920085.8826776,23009.0
1698920085.903111,23016.0
1698920085.923545,23034.0
1698920085.9439785,23048.0
1698920085.9644122,23056.0
1698920085.9848456,23072.0
1698920086.005279,23083.0
1698920086.0257125,23088.0
1698920086.046146,23088.0
1698920086.0665796,23099.0
1698920086.0870132,23112.0
1698920086.1074462,23116.0
1698920086.1278799,23118.0
1698920086.1483138,23131.0
1698920086.1687472,23133.0
1698920086.1891809,23150.0
1698920086.2096145,23158.0
1698920086.2300477,23166.0
1698920086.2504811,23181.0
1698920086.2709148,23191.0
1698920086.2913485,23185.0
1698920086.3117814,23201.0
1698920086.332215,23196.0
1698920086.352649,23188.0
1698920086.3730826,23191.0
1698920086.393516,23187.0
1698920086.4139497,23191.0
1698920086.4343832,23191.0
1698920086.4548163,23187.0
1698920086.47525,23190.0
1698920086.4956837,23192.0
1698920086.5161169,23196.0
1698920086.5365503,23186.0
1698920086.556984,23188.0
1698920086.5774174,23182.0
1698920086.597851,23188.0
1698920086.618285,23190.0
1698920086.6387186,23187.0
1698920086.6591516,23184.0
1698920086.6795852,23190.0
1698920086.700019,23182.0
1698920086.7204523,23190.0
1698920086.7408855,23183.0
1698920086.7613192,23185.0
1698920086.7817528,23183.0
1698920086.8021863,23187.0
1698920086.8226202,23191.0
1698920086.8430538,23199.0
1698920086.8634868,23189.0
1698920086.8839204,23195.0
1698920086.904354,23194.0
1698920086.9247875,23193.0
1698920086.945221,23199.0
1698920086.9656544,23192.0
1698920086.9860878,23171.0
1698920087.0065215,23178.0
1698920087.0269551,23183.0
1698920087.047389,23183.0
1698920087.0678225,23195.0
1698920087.0882556,23200.0
1698920087.1086893,23198.0
1698920087.1291227,23202.0
1698920087.1495562,23200.0
1698920087.1699896,23208.0
1698920087.190423,23209.0
1698920087.210857,23207.0
1698920087.2312903,23205.0
1698920087.251724,23207.0
1698920087.2721577,23211.0
1698920087.2925909,23214.0
1698920087.3130245,23212.0
1698920087.333458,23204.0
1698920087.3538914,23212.0
1698920087.374325,23215.0
1698920087.3947582,23205.0
1698920087.415192,23192.0
1698920087.4356256,23198.0
1698920087.456059,23197.0
1698920087.476493,23190.0
1698920087.496926,23192.0
1698920087.5173597,23181.0
1698920087.5377932,23198.0
1698920087.5582268,23194.0
1698920087.5786602,23187.0
1698920087.5990937,23190.0
1698920087.619527,23196.0
1698920087.6399608,23192.0
1698920087.6603942,23191.0
1698920087.6808279,23194.0
1698920087.7012618,23186.0
1698920087.7216947,23194.0
1698920087.7421284,23191.0
1698920087.762562,23195.0
1698920087.7829955,23194.0
1698920087.803429,23194.0
1698920087.8238623,23190.0
1698920087.844296,23195.0
1698920087.8647294,23192.0
1698920087.885163,23192.0
1698920087.9055967,23192.0
1698920087.92603,23189.0
1698920087.9464636,23190.0
1698920087.9668972,23189.0
1698920087.9873307,23187.0
1698920088.007764,23188.0
1698920088.0281978,23188.0
1698920088.0486312,23198.0
1698920088.0690646,23195.0
1698920088.0894983,23194.0
1698920088.109932,23194.0
1698920088.1303651,23195.0
1698920088.1507988,23175.0
1698920088.1712325,23168.0
1698920088.1916661,23163.0
1698920088.2120993,23163.0
1698920088.232533,23165.0
1698920088.2529666,23164.0
1698920088.2733998,23167.0
1698920088.2938335,23173.0
1698920088.3142672,23179.0
1698920088.3347006,23181.0
1698920088.355134,23195.0
1698920088.3755677,23190.0
1698920088.3960013,23200.0
1698920088.4164345,23206.0
1698920088.4368682,23212.0
1698920088.4573019,23202.0
1698920088.477735,23205.0
1698920088.4981687,23199.0
1698920088.5186024,23196.0
1698920088.5390358,23207.0
1698920088.5594692,23207.0
1698920088.579903,23213.0
1698920088.6003363,23224.0
1698920088.6207697,23222.0
1698920088.6412034,23215.0
1698920088.661637,23225.0
1698920088.6820705,23225.0
1698920088.702504,23221.0
1698920088.7229376,23227.0
1698920088.743371,23235.0
1698920088.7638044,23242.0
1698920088.784238,23245.0
1698920088.8046715,23259.0
1698920088.8251052,23273.0
1698920088.8455386,23284.0
1698920088.8659723,23293.0
1698920088.8864057,23296.0
1698920088.9068391,23303.0
1698920088.9272728,23312.0
1698920088.9477062,23318.0
1698920088.96814,23322.0
1698920088.9885733,23316.0
1698920089.0090067,23319.0
1698920089.0294404,23319.0
1698920089.0498738,23322.0
1698920089.0703073,23316.0
1698920089.090741,23319.0
1698920089.1111743,23311.0
1698920089.131608,23308.0
1698920089.1520414,23311.0
1698920089.172475,23308.0
1698920089.1929085,23305.0
1698920089.213342,23301.0
1698920089.2337756,23311.0
1698920089.254209,23315.0
1698920089.2746425,23322.0
1698920089.2950761,23323.0
1698920089.3155098,23322.0
1698920089.3359432,23315.0
1698920089.3563766,23304.0
1698920089.3768103,23311.0
1698920089.3972437,23315.0
1698920089.4176772,23316.0
1698920089.4381108,23325.0
1698920089.4585445,23345.0
1698920089.4789777,23361.0
1698920089.4994113,23366.0
1698920089.519845,23364.0
1698920089.5402784,23370.0
1698920089.5607119,23379.0
1698920089.5811455,23388.0
1698920089.601579,23385.0
1698920089.6220124,23386.0
1698920089.642446,23373.0
1698920089.6628797,23376.0
1698920089.683313,23365.0
1698920089.7037466,23360.0
1698920089.7241802,23353.0
1698920089.7446134,23351.0
1698920089.765047,23349.0
1698920089.7854807,23347.0
1698920089.8059144,23339.0
1698920089.8263476,23337.0
1698920089.8467813,23333.0
1698920089.867215,23326.0
1698920089.887648,23320.0
1698920089.9080818,23311.0
1698920089.9285154,23313.0
1698920089.9489489,23319.0
1698920089.9693823,23335.0
1698920089.989816,23334.0
1698920090.0102496,23337.0
1698920090.0306828,23350.0
1698920090.0511165,23362.0
1698920090.0715501,23378.0
1698920090.0919836,23387.0
1698920090.112417,23409.0
1698920090.1328506,23416.0
1698920090.153284,23436.0
1698920090.1737175,23449.0
1698920090.1941512,23471.0
1698920090.2145848,23479.0
1698920090.235018,23496.0
1698920090.2554517,23512.0
1698920090.2758853,23527.0
1698920090.2963188,23541.0
1698920090.3167522,23535.0
1698920090.3371859,23544.0
1698920090.3576193,23546.0
1698920090.3780527,23558.0
1698920090.3984864,23556.0
1698920090.41892,23576.0
1698920090.4393535,23589.0
1698920090.459787,23613.0
1698920090.4802206,23621.0
1698920090.500654,23625.0
1698920090.5210874,23621.0
1698920090.541521,23608.0
1698920090.5619545,23600.0
1698920090.5823882,23575.0
1698920090.6028216,23528.0
1698920090.623255,23464.0
1698920090.6436887,23422.0
1698920090.664122,23368.0
1698920090.6845558,23295.0
1698920090.7049892,23208.0
1698920090.7254226,23143.0
1698920090.7458563,23098.0
1698920090.7662897,23082.0
1698920090.7867234,23060.0
1698920090.8071568,23030.0
1698920090.8275902,23020.0
1698920090.848024,23020.0
1698920090.8684573,23007.0
1698920090.888891,23023.0
1698920090.9093244,23015.0
1698920090.929758,23012.0
1698920090.9501915,23006.0
1698920090.970625,22998.0
1698920090.9910586,23004.0
1698920091.011492,23001.0
1698920091.0319254,22998.0
1698920091.052359,22997.0
1698920091.0727928,22995.0
1698920091.093226,22997.0
1698920091.1136596,22993.0
1698920091.1340933,22983.0
1698920091.1545267,22985.0
1698920091.1749601,22985.0
1698920091.1953938,22980.0
1698920091.2158275,22966.0
1698920091.2362607,22969.0
1698920091.2566943,22975.0
1698920091.277128,22967.0
1698920091.2975612,22963.0
1698920091.3179948,22970.0
1698920091.3384285,22959.0
1698920091.358862,22960.0
1698920091.3792953,22958.0
1698920091.399729,22954.0
1698920091.4201627,22954.0
1698920091.4405959,22953.0
1698920091.4610295,22958.0
1698920091.4814632,22952.0
1698920091.5018964,22946.0
1698920091.52233,22948.0
1698920091.5427637,22951.0
1698920091.5631974,22942.0
1698920091.5836306,22943.0
1698920091.6040642,22942.0
1698920091.624498,22943.0
1698920091.644931,22939.0
1698920091.6653647,22945.0
1698920091.6857984,22949.0
1698920091.7062318,22944.0
1698920091.7266653,22937.0
1698920091.747099,22940.0
1698920091.7675326,22952.0
1698920091.7879658,22944.0
1698920091.8083994,22946.0
1698920091.828833,22952.0
1698920091.8492663,22952.0
1698920091.8697,22948.0
1698920091.8901336,22946.0
1698920091.910567,22942.0
1698920091.9310005,22946.0
1698920091.9514341,22942.0
1698920091.9718676,22937.0
1698920091.992301,22934.0
1698920092.0127347,22931.0
1698920092.0331683,22934.0
1698920092.0536017,22930.0
1698920092.0740352,22925.0
1698920092.0944688,22920.0
1698920092.1149023,22904.0
1698920092.1353357,22888.0
1698920092.1557693,22886.0
1698920092.1762028,22890.0
1698920092.1966364,22901.0
1698920092.2170699,22894.0
1698920092.2375035,22892.0
1698920092.257937,22892.0
1698920092.2783704,22888.0
1698920092.298804,22887.0
1698920092.3192375,22879.0
1698920092.3396711,22876.0
1698920092.3601046,22864.0
1698920092.380538,22859.0
1698920092.4009717,22837.0
1698920092.421405,22823.0
1698920092.4418387,22817.0
1698920092.4622722,22798.0
1698920092.4827056,22782.0
1698920092.5031393,22757.0
1698920092.5235727,22721.0
1698920092.5440063,22686.0
1698920092.5644398,22647.0
1698920092.5848732,22580.0
1698920092.6053069,22391.0
1698920092.6257403,22202.0
1698920092.6461737,21984.0
1698920092.6666074,21717.0
1698920092.687041,21329.0
1698920092.7074745,20899.0
1698920092.727908,20648.0
1698920092.7483416,20438.0
1698920092.768775,20291.0
1698920092.7892084,20168.0
1698920092.809642,20030.0
1698920092.8300757,20025.0
1698920092.850509,19999.0
1698920092.8709426,19988.0
1698920092.8913763,20036.0
1698920092.9118097,20099.0
1698920092.932243,20163.0
1698920092.9526768,20289.0
1698920092.9731102,20446.0
1698920092.9935436,20571.0
1698920093.0139773,20670.0
1698920093.034411,20721.0
1698920093.0548441,20713.0
1698920093.0752778,20690.0
1698920093.0957115,20669.0
1698920093.1161447,20660.0
1698920093.1365783,20655.0
1698920093.157012,20656.0
1698920093.1774457,20647.0
1698920093.1978788,20641.0
1698920093.2183125,20647.0
1698920093.2387462,20642.0
1698920093.2591794,20631.0
1698920093.279613,20630.0
1698920093.3000467,20619.0
1698920093.32048,20621.0
1698920093.3409135,20640.0
1698920093.3613472,20670.0
1698920093.3817809,20690.0
1698920093.402214,20691.0
1698920093.4226477,20699.0
1698920093.4430814,20688.0
1698920093.4635148,20693.0
1698920093.4839482,20688.0
1698920093.504382,20684.0
1698920093.5248153,20692.0
1698920093.5452487,20696.0
1698920093.5656824,20685.0
1698920093.586116,20690.0
1698920093.6065493,20679.0
1698920093.626983,20681.0
1698920093.6474166,20669.0
1698920093.66785,20673.0
1698920093.6882834,20678.0
1698920093.708717,20677.0
1698920093.7291505,20669.0
1698920093.749584,20670.0
1698920093.7700176,20663.0
1698920093.7904513,20674.0
1698920093.8108847,20683.0
1698920093.8313181,20690.0
1698920093.8517518,20708.0
1698920093.8721852,20704.0
1698920093.892619,20717.0
1698920093.9130523,20727.0
1698920093.9334857,20733.0
1698920093.9539194,20732.0
1698920093.9743528,20734.0
1698920093.9947863,20747.0
1698920094.01522,20749.0
1698920094.0356534,20751.0
1698920094.056087,20759.0
1698920094.0765204,20771.0
1698920094.096954,20774.0
1698920094.1173878,20789.0
1698920094.137821,20807.0
1698920094.1582546,20817.0
1698920094.178688,20833.0
1698920094.1991215,20846.0
1698920094.2195551,20867.0
1698920094.2399883,20873.0
1698920094.2604222,20883.0
1698920094.2808557,20887.0
1698920094.3012893,20893.0
1698920094.321723,20897.0
1698920094.3421562,20908.0
1698920094.3625898,20918.0
1698920094.3830233,20924.0
1698920094.4034567,20921.0
1698920094.4238904,20928.0
1698920094.444324,20935.0
1698920094.464757,20933.0
1698920094.4851909,20951.0
1698920094.5056245,20954.0
1698920094.5260582,20969.0
1698920094.5464916,21005.0
1698920094.566925,21040.0
1698920094.5873587,21091.0
1698920094.607792,21124.0
1698920094.6282256,21166.0
1698920094.6486592,21209.0
1698920094.6690922,21255.0
1698920094.6895258,21293.0
1698920094.7099597,21327.0
1698920094.7303932,21367.0
1698920094.7508268,21407.0
1698920094.7712605,21447.0
1698920094.791694,21480.0
1698920094.812127,21504.0
1698920094.8325608,21535.0
1698920094.8529944,21566.0
1698920094.8734274,21588.0
1698920094.893861,21615.0
1698920094.914295,21631.0
1698920094.9347286,21649.0
1698920094.955162,21666.0
1698920094.9755957,21666.0
1698920094.9960291,21685.0
1698920095.0164623,21694.0
1698920095.036896,21706.0
1698920095.0573297,21702.0
1698920095.077763,21714.0
1698920095.0981963,21715.0
1698920095.11863,21714.0
1698920095.1390638,21713.0
1698920095.159497,21715.0
1698920095.179931,21704.0
1698920095.2003646,21708.0
1698920095.2207975,21701.0
1698920095.2412312,21688.0
1698920095.2616649,21687.0
1698920095.2820983,21689.0
1698920095.3025315,21680.0
1698920095.3229651,21685.0
1698920095.3433988,21690.0
1698920095.3638325,21695.0
1698920095.3842661,21698.0
1698920095.4046998,21703.0
1698920095.425133,21701.0
1698920095.4455664,21710.0
1698920095.4864497,21716.0
1698920095.5068989,21723.0
1698920095.5273483,21729.0
1698920095.5477977,21731.0
1698920095.568247,21733.0
1698920095.5886962,21730.0
1698920095.6091459,21741.0
1698920095.6295958,21735.0
1698920095.650045,21742.0
1698920095.6704943,21744.0
1698920095.690944,21746.0
1698920095.711393,21752.0
1698920095.7318423,21745.0
1698920095.752292,21750.0
1698920095.7727418,21748.0
1698920095.793191,21750.0
1698920095.8136404,21750.0
1698920095.8340898,21756.0
1698920095.8545394,21752.0
1698920095.8749883,21747.0
1698920095.895438,21756.0
1698920095.9158876,21753.0
1698920095.936337,21748.0
1698920095.9567864,21731.0
1698920095.9772358,21729.0
1698920095.9976852,21735.0
1698920096.0181348,21725.0
1698920096.038584,21730.0
1698920096.0590334,21730.0
1698920096.0794828,21735.0
1698920096.0999324,21729.0
1698920096.1203818,21737.0
1698920096.1408312,21722.0
1698920096.1612809,21726.0
1698920096.1817303,21730.0
1698920096.2021794,21723.0
1698920096.2226288,21724.0
1698920096.2430785,21705.0
1698920096.2635279,21700.0
1698920096.2839773,21729.0
1698920096.3044267,21730.0
1698920096.3248763,21726.0
1698920096.3453257,21729.0
1698920096.3657749,21732.0
1698920096.3862243,21730.0
1698920096.406674,21738.0
1698920096.4271233,21736.0
1698920096.4475727,21736.0
1698920096.468022,21729.0
1698920096.4884717,21728.0
1698920096.5089211,21728.0
1698920096.5293703,21731.0
1698920096.5498197,21729.0
1698920096.5702693,21737.0
1698920096.5907187,21740.0
1698920096.6111681,21734.0
1698920096.6316178,21737.0
1698920096.6520672,21739.0
1698920096.6725163,21736.0
1698920096.6929657,21745.0
1698920096.7134154,21736.0
1698920096.7338648,21733.0
1698920096.7543142,21747.0
1698920096.7747636,21747.0
1698920096.7952132,21747.0
1698920096.8156626,21754.0
1698920096.8361118,21754.0
1698920096.8565612,21757.0
1698920096.8770108,21765.0
1698920096.8974602,21766.0
1698920096.9179096,21763.0
1698920096.938359,21766.0
1698920096.9588087,21768.0
1698920096.979258,21770.0
1698920096.9997072,21769.0
1698920097.0201566,21770.0
1698920097.0406063,21768.0
1698920097.0610557,21766.0
1698920097.081505,21775.0
1698920097.1019547,21774.0
1698920097.122404,21771.0
1698920097.1428535,21761.0
1698920097.1633027,21750.0
1698920097.1837523,21740.0
1698920097.2042017,21737.0
1698920097.224651,21741.0
1698920097.2451005,21733.0
1698920097.2655501,21741.0
1698920097.2859995,21741.0
1698920097.306449,21737.0
1698920097.326898,21746.0
1698920097.3473477,21747.0
1698920097.3677971,21753.0
1698920097.3882465,21750.0
1698920097.408696,21748.0
1698920097.4291456,21750.0
1698920097.449595,21743.0
1698920097.4700444,21733.0
1698920097.4904935,21733.0
1698920097.5109432,21728.0
1698920097.5313926,21726.0
1698920097.551842,21719.0
1698920097.5722916,21712.0
1698920097.592741,21702.0
1698920097.6131904,21702.0
1698920097.6336398,21691.0
1698920097.6540892,21692.0
1698920097.6745386,21693.0
1698920097.694988,21681.0
1698920097.7154374,21676.0
1698920097.735887,21671.0
1698920097.7563365,21670.0
1698920097.7767859,21668.0
1698920097.797235,21667.0
1698920097.8176847,21664.0
1698920097.838134,21655.0
1698920097.8585835,21645.0
1698920097.8790329,21637.0
1698920097.8994825,21634.0
1698920097.919932,21628.0
1698920097.940381,21630.0
1698920097.9608305,21635.0
1698920097.98128,21617.0
1698920098.0017295,21597.0
1698920098.022179,21604.0
1698920098.0426285,21599.0
1698920098.063078,21596.0
1698920098.083527,21592.0
1698920098.1039767,21588.0
1698920098.1244261,21570.0
1698920098.1448755,21571.0
1698920098.165325,21610.0
1698920098.1857743,21593.0
1698920098.2062242,21572.0
1698920098.2266731,21579.0
1698920098.2471228,21585.0
1698920098.2675724,21591.0
1698920098.2880216,21585.0
1698920098.308471,21590.0
1698920098.3289204,21586.0
1698920098.34937,21597.0
1698920098.3698192,21592.0
1698920098.3902688,21597.0
1698920098.4107184,21591.0
1698920098.4311674,21593.0
1698920098.451617,21594.0
1698920098.4720664,21596.0
1698920098.492516,21592.0
1698920098.5129652,21590.0
1698920098.5334148,21576.0
1698920098.5538645,21571.0
1698920098.5743136,21570.0
1698920098.5947633,21584.0
1698920098.6152124,21590.0
1698920098.635662,21591.0
1698920098.656111,21594.0
1698920098.6765609,21591.0
1698920098.6970105,21594.0
1698920098.7174597,21597.0
1698920098.737909,21589.0
1698920098.7583587,21593.0
1698920098.778808,21589.0
1698920098.799257,21588.0
1698920098.8197067,21582.0
1698920098.8401563,21580.0
1698920098.8606057,21578.0
1698920098.881055,21581.0
1698920098.9015048,21574.0
1698920098.9219542,21573.0
1698920098.9424033,21574.0
1698920098.9628527,21566.0
1698920098.9833024,21567.0
