timestamp,ppg
1698672747.0061083,15018.0
1698672747.0265179,15062.0
1698672747.0469272,15059.0
1698672747.0673368,15067.0
1698672747.0877461,15068.0
1698672747.1081557,15072.0
1698672747.128565,15072.0
1698672747.1489747,15087.0
1698672747.169384,15092.0
1698672747.1897936,15053.0
1698672747.2102032,15093.0
1698672747.2306123,15097.0
1698672747.2510219,15104.0
1698672747.2714314,15106.0
1698672747.2918408,15063.0
1698672747.3122504,15110.0
1698672747.33266,15110.0
1698672747.353069,15111.0
1698672747.3734787,15113.0
1698672747.3938882,15107.0
1698672747.4142976,15109.0
1698672747.4347072,15107.0
1698672747.4551167,15065.0
1698672747.4755259,15100.0
1698672747.4959354,15097.0
1698672747.516345,15097.0
1698672747.5367546,15050.0
1698672747.557164,15091.0
1698672747.5775735,15090.0
1698672747.597983,15092.0
1698672747.6183922,15096.0
1698672747.638802,15101.0
1698672747.6592114,15116.0
1698672747.6796207,15122.0
1698672747.7000306,15121.0
1698672747.7204397,15120.0
1698672747.740849,15121.0
1698672747.7612588,15125.0
1698672747.7816682,15128.0
1698672747.8020775,15131.0
1698672747.822487,15091.0
1698672747.8428965,15141.0
1698672747.863306,15140.0
1698672747.8837156,15098.0
1698672747.904125,15149.0
1698672747.9245343,15150.0
1698672747.944944,15154.0
1698672747.9653535,15151.0
1698672747.9857628,15103.0
1698672748.0061724,15151.0
1698672748.0265818,15157.0
1698672748.046991,15106.0
1698672748.067401,15150.0
1698672748.0878103,15106.0
1698672748.1082194,15151.0
1698672748.1286292,15147.0
1698672748.1490386,15146.0
1698672748.169448,15145.0
1698672748.1898577,15142.0
1698672748.210267,15097.0
1698672748.2306764,15138.0
1698672748.251086,15136.0
1698672748.2714953,15132.0
1698672748.291905,15128.0
1698672748.3123145,15122.0
1698672748.332724,15123.0
1698672748.3531332,15117.0
1698672748.3735428,15120.0
1698672748.3939524,15121.0
1698672748.4143617,15121.0
1698672748.4347713,15122.0
1698672748.455181,15078.0
1698672748.47559,15122.0
1698672748.4959996,15121.0
1698672748.5164092,15117.0
1698672748.5368185,15118.0
1698672748.557228,15113.0
1698672748.5776377,15117.0
1698672748.5980468,15119.0
1698672748.6184564,15121.0
1698672748.638866,15120.0
1698672748.6592753,15118.0
1698672748.6796849,15117.0
1698672748.7000942,15110.0
1698672748.7205038,15104.0
1698672748.7409132,15059.0
1698672748.7613227,15102.0
1698672748.781732,15091.0
1698672748.8021417,15090.0
1698672748.822551,15088.0
1698672748.8429606,15086.0
1698672748.8633702,15080.0
1698672748.8837795,15070.0
1698672748.9041889,15065.0
1698672748.9245985,15012.0
1698672748.945008,15050.0
1698672748.9654174,15036.0
1698672748.985827,15027.0
1698672749.0062363,15022.0
1698672749.0266457,15023.0
1698672749.0470555,15012.0
1698672749.0674648,14965.0
1698672749.0878744,15010.0
1698672749.1082838,15004.0
1698672749.128693,15010.0
1698672749.1491022,15016.0
1698672749.1695123,15007.0
1698672749.1899216,15015.0
1698672749.210331,15018.0
1698672749.2307405,15015.0
1698672749.25115,15019.0
1698672749.2715595,14972.0
1698672749.291969,15014.0
1698672749.3123784,15017.0
1698672749.3327878,14976.0
1698672749.3531973,15014.0
1698672749.373607,15011.0
1698672749.3940163,15012.0
1698672749.4144258,15010.0
1698672749.4348352,15008.0
1698672749.4552445,15008.0
1698672749.4756541,15004.0
1698672749.4960637,15004.0
1698672749.516473,14995.0
1698672749.5368826,14998.0
1698672749.557292,14994.0
1698672749.5777013,14996.0
1698672749.5981112,14994.0
1698672749.6185205,15006.0
1698672749.6389298,15010.0
1698672749.6593394,15013.0
1698672749.6797488,15012.0
1698672749.7001584,15013.0
1698672749.7205682,15004.0
1698672749.7409773,14998.0
1698672749.7613866,14991.0
1698672749.781796,14994.0
1698672749.8022056,14943.0
1698672749.8226151,14989.0
1698672749.843025,14991.0
1698672749.863434,14990.0
1698672749.8838434,14982.0
1698672749.904253,14976.0
1698672749.9246626,14967.0
1698672749.945072,14958.0
1698672749.9654815,14917.0
1698672749.9858909,14963.0
1698672750.0063002,14926.0
1698672750.02671,14969.0
1698672750.0471194,14930.0
1698672750.0675287,14983.0
1698672750.0879383,14984.0
1698672750.1083477,14978.0
1698672750.128757,14981.0
1698672750.1491668,14977.0
1698672750.1695762,14975.0
1698672750.1899855,14980.0
1698672750.210395,14978.0
1698672750.2308044,14976.0
1698672750.251214,14974.0
1698672750.2716236,14969.0
1698672750.292033,14973.0
1698672750.3124423,14973.0
1698672750.332852,14968.0
1698672750.3532617,14967.0
1698672750.3736708,14966.0
1698672750.3940804,14928.0
1698672750.4144895,14967.0
1698672750.434899,14964.0
1698672750.4553087,14966.0
1698672750.4757185,14969.0
1698672750.4961276,14969.0
1698672750.5165372,14968.0
1698672750.5369463,14961.0
1698672750.5573559,14965.0
1698672750.5777657,14926.0
1698672750.598175,14967.0
1698672750.6185844,14926.0
1698672750.638994,14968.0
1698672750.6594033,14976.0
1698672750.679813,14970.0
1698672750.7002225,14976.0
1698672750.7206318,14972.0
1698672750.7410412,14977.0
1698672750.7614508,14983.0
1698672750.78186,14975.0
1698672750.8022697,14982.0
1698672750.8226793,14977.0
1698672750.8430886,14965.0
1698672750.863498,14966.0
1698672750.8839078,14967.0
1698672750.9043171,14970.0
1698672750.9247265,14968.0
1698672750.945136,14967.0
1698672750.9655454,14964.0
1698672750.9859548,14965.0
1698672751.0063646,14968.0
1698672751.026774,14974.0
1698672751.047183,14976.0
1698672751.0675929,14972.0
1698672751.0880022,14974.0
1698672751.1084116,14970.0
1698672751.1288214,14973.0
1698672751.1492307,14974.0
1698672751.1696398,14930.0
1698672751.1900496,14974.0
1698672751.210459,14977.0
1698672751.2308688,14978.0
1698672751.2512782,14975.0
1698672751.2716875,14975.0
1698672751.2920969,14934.0
1698672751.3125064,14976.0
1698672751.332916,14977.0
1698672751.3533254,14980.0
1698672751.373735,14977.0
1698672751.3941443,14982.0
1698672751.4145536,14982.0
1698672751.4349635,14936.0
1698672751.4553728,14982.0
1698672751.4757822,14984.0
1698672751.4961917,14984.0
1698672751.516601,14986.0
1698672751.5370104,14982.0
1698672751.5574203,14988.0
1698672751.5778296,14990.0
1698672751.598239,14987.0
1698672751.6186485,14984.0
1698672751.639058,14942.0
1698672751.6594675,14984.0
1698672751.679877,14976.0
1698672751.7002864,14987.0
1698672751.7206957,14981.0
1698672751.7411053,14976.0
1698672751.761515,14978.0
1698672751.7819242,14978.0
1698672751.8023336,14976.0
1698672751.8227432,14981.0
1698672751.8431525,14934.0
1698672751.863562,14977.0
1698672751.8839717,14976.0
1698672751.904381,14934.0
1698672751.9247904,14976.0
1698672751.9452,14974.0
1698672751.9656093,14973.0
1698672751.9860191,14979.0
1698672752.0064285,14977.0
1698672752.0268378,14979.0
1698672752.0472474,14979.0
1698672752.0676568,14934.0
1698672752.0880663,14976.0
1698672752.108476,14983.0
1698672752.1288853,14983.0
1698672752.1492949,14977.0
1698672752.1697042,14980.0
1698672752.1901135,14977.0
1698672752.2105231,14930.0
1698672752.2309327,14976.0
1698672752.251342,14975.0
1698672752.2717516,14980.0
1698672752.292161,14976.0
1698672752.3125706,14942.0
1698672752.33298,14983.0
1698672752.3533895,14978.0
1698672752.3737988,14984.0
1698672752.3942084,14990.0
1698672752.414618,14949.0
1698672752.4350271,14989.0
1698672752.4554367,14982.0
1698672752.4758463,14983.0
1698672752.4962556,14976.0
1698672752.516665,14975.0
1698672752.5370748,14980.0
1698672752.557484,14976.0
1698672752.5778935,14979.0
1698672752.598303,14985.0
1698672752.6187124,14988.0
1698672752.639122,14991.0
1698672752.6595316,14953.0
1698672752.679941,15001.0
1698672752.7003503,14959.0
1698672752.7207599,15001.0
1698672752.7411695,14996.0
1698672752.7615788,15004.0
1698672752.7819884,15001.0
1698672752.8023977,15003.0
1698672752.822807,15006.0
1698672752.8432167,15006.0
1698672752.8636262,15014.0
1698672752.8840356,15010.0
1698672752.9044452,15008.0
1698672752.9248545,14969.0
1698672752.9452639,15011.0
1698672752.9656737,15013.0
1698672752.986083,15012.0
1698672753.0064924,15012.0
1698672753.0269022,15009.0
1698672753.0473113,15009.0
1698672753.067721,15008.0
1698672753.0881305,14997.0
1698672753.1085398,14986.0
1698672753.1289492,14989.0
1698672753.1493587,14992.0
1698672753.169768,14993.0
1698672753.1901774,14994.0
1698672753.2105873,14990.0
1698672753.2309966,14988.0
1698672753.251406,14988.0
1698672753.2718155,14981.0
1698672753.2922251,14981.0
1698672753.3126345,14976.0
1698672753.333044,14975.0
1698672753.3534534,14970.0
1698672753.3738627,14969.0
1698672753.3942726,14958.0
1698672753.414682,14959.0
1698672753.4350913,14956.0
1698672753.4555008,14961.0
1698672753.4759102,14949.0
1698672753.4963195,14945.0
1698672753.5167294,14942.0
1698672753.537139,14935.0
1698672753.557548,14951.0
1698672753.5779576,14949.0
1698672753.598367,14940.0
1698672753.6187766,14938.0
1698672753.6391861,14929.0
1698672753.6595957,14939.0
1698672753.6800048,14936.0
1698672753.7004144,14931.0
1698672753.720824,14937.0
1698672753.7412333,14933.0
1698672753.761643,14933.0
1698672753.7820523,14929.0
1698672753.8024616,14933.0
1698672753.8228712,14920.0
1698672753.8432808,14921.0
1698672753.8636901,14921.0
1698672753.8840997,14916.0
1698672753.904509,14908.0
1698672753.9249184,14864.0
1698672753.945328,14905.0
1698672753.9657376,14899.0
1698672753.986147,14900.0
1698672754.0065565,14894.0
1698672754.0269659,14885.0
1698672754.0473754,14888.0
1698672754.067785,14883.0
1698672754.0881944,14883.0
1698672754.1086037,14876.0
1698672754.1290133,14838.0
1698672754.1494226,14873.0
1698672754.1698325,14878.0
1698672754.1902418,14878.0
1698672754.2106512,14834.0
1698672754.2310603,14877.0
1698672754.25147,14873.0
1698672754.2718797,14875.0
1698672754.292289,14873.0
1698672754.3126986,14871.0
1698672754.333108,14829.0
1698672754.353517,14870.0
1698672754.373927,14871.0
1698672754.3943365,14871.0
1698672754.4147458,14871.0
1698672754.4351554,14866.0
1698672754.4555647,14877.0
1698672754.475974,14862.0
1698672754.496384,14862.0
1698672754.5167933,14858.0
1698672754.5372026,14812.0
1698672754.557612,14853.0
1698672754.5780215,14850.0
1698672754.598431,14844.0
1698672754.6188407,14838.0
1698672754.63925,14835.0
1698672754.6596594,14789.0
1698672754.6800687,14826.0
1698672754.7004786,14824.0
1698672754.720888,14820.0
1698672754.7412972,14815.0
1698672754.7617068,14815.0
1698672754.7821162,14813.0
1698672754.802526,14803.0
1698672754.8229353,14805.0
1698672754.8433447,14803.0
1698672754.863754,14806.0
1698672754.8841636,14800.0
1698672754.904573,14803.0
1698672754.924983,14800.0
1698672754.9453921,14796.0
1698672754.9658015,14799.0
1698672754.9862108,14798.0
1698672755.0066204,14792.0
1698672755.02703,14795.0
1698672755.0474398,14791.0
1698672755.067849,14793.0
1698672755.0882583,14742.0
1698672755.1086674,14784.0
1698672755.1290774,14788.0
1698672755.1494868,14780.0
1698672755.1698961,14774.0
1698672755.1903057,14767.0
1698672755.210715,14762.0
1698672755.2311244,14755.0
1698672755.2515342,14751.0
1698672755.2719436,14744.0
1698672755.292353,14737.0
1698672755.3127625,14735.0
1698672755.333172,14729.0
1698672755.3535814,14679.0
1698672755.373991,14713.0
1698672755.3944004,14715.0
1698672755.4148097,14708.0
1698672755.4352193,14704.0
1698672755.4556289,14703.0
1698672755.4760382,14695.0
1698672755.4964478,14689.0
1698672755.5168571,14687.0
1698672755.5372665,14685.0
1698672755.557676,14679.0
1698672755.5780857,14677.0
1698672755.598495,14672.0
1698672755.6189044,14669.0
1698672755.639314,14669.0
1698672755.6597233,14667.0
1698672755.680133,14659.0
1698672755.7005424,14663.0
1698672755.7209518,14662.0
1698672755.7413611,14655.0
1698672755.7617707,14648.0
1698672755.7821803,14642.0
1698672755.80259,14640.0
1698672755.8229992,14635.0
1698672755.8434086,14626.0
1698672755.8638182,14621.0
1698672755.8842275,14612.0
1698672755.904637,14565.0
1698672755.9250467,14593.0
1698672755.945456,14544.0
1698672755.9658654,14581.0
1698672755.986275,14572.0
1698672756.0066845,14559.0
1698672756.027094,14550.0
1698672756.0475035,14504.0
1698672756.0679128,14536.0
1698672756.0883224,14525.0
1698672756.108732,14524.0
1698672756.1291413,14522.0
1698672756.1495507,14513.0
1698672756.1699603,14508.0
1698672756.1903696,14503.0
1698672756.210779,14500.0
1698672756.2311888,14494.0
1698672756.251598,14493.0
1698672756.2720075,14489.0
1698672756.292417,14480.0
1698672756.3128264,14478.0
1698672756.333236,14473.0
1698672756.3536456,14470.0
1698672756.374055,14469.0
1698672756.3944643,14468.0
1698672756.4148738,14461.0
1698672756.4352834,14456.0
1698672756.4556928,14452.0
1698672756.4761024,14445.0
1698672756.4965117,14396.0
1698672756.516921,14429.0
1698672756.5373306,14420.0
1698672756.5577402,14415.0
1698672756.5781496,14405.0
1698672756.5985591,14394.0
1698672756.6189685,14383.0
1698672756.6393778,14369.0
1698672756.6597877,14365.0
1698672756.680197,14356.0
1698672756.7006063,14351.0
1698672756.7210162,14342.0
1698672756.7414253,14338.0
1698672756.7618349,14326.0
1698672756.7822444,14320.0
1698672756.8026538,14309.0
1698672756.8230631,14264.0
1698672756.843473,14298.0
1698672756.863882,14290.0
1698672756.8842914,14290.0
1698672756.9047012,14282.0
1698672756.9251106,14268.0
1698672756.94552,14265.0
1698672756.9659295,14259.0
1698672756.986339,14255.0
1698672757.0067482,14248.0
1698672757.027158,14244.0
1698672757.0475674,14236.0
1698672757.0679767,14231.0
1698672757.0883865,14229.0
1698672757.108796,14227.0
1698672757.129205,14179.0
1698672757.1496148,14174.0
1698672757.1700242,14213.0
1698672757.1904335,14210.0
1698672757.2108433,14160.0
1698672757.2312527,14200.0
1698672757.251662,14184.0
1698672757.2720716,14182.0
1698672757.292481,14131.0
1698672757.3128905,14159.0
1698672757.3333,14156.0
1698672757.3537097,14139.0
1698672757.3741188,14126.0
1698672757.3945284,14124.0
1698672757.414938,14124.0
1698672757.4353473,14114.0
1698672757.455757,14107.0
1698672757.4761665,14105.0
1698672757.4965756,14098.0
1698672757.5169852,14091.0
1698672757.5373948,14081.0
1698672757.557804,14086.0
1698672757.5782137,14077.0
1698672757.598623,14075.0
1698672757.6190324,14074.0
1698672757.639442,14069.0
1698672757.6598516,14066.0
1698672757.680261,14067.0
1698672757.7006705,14065.0
1698672757.7210798,14066.0
1698672757.7414894,14022.0
1698672757.761899,14056.0
1698672757.7823083,14056.0
1698672757.8027177,14058.0
1698672757.8231273,14055.0
1698672757.8435366,14052.0
1698672757.8639462,14053.0
1698672757.8843558,14039.0
1698672757.9047651,14028.0
1698672757.9251745,13979.0
1698672757.945584,14014.0
1698672757.9659936,14006.0
1698672757.986403,13992.0
1698672758.0068126,13989.0
1698672758.027222,13973.0
1698672758.047631,13968.0
1698672758.068041,13962.0
1698672758.0884504,13953.0
1698672758.10886,13910.0
1698672758.1292694,13943.0
1698672758.1496787,13901.0
1698672758.1700883,13934.0
1698672758.1904979,13928.0
1698672758.2109072,13923.0
1698672758.2313168,13930.0
1698672758.2517262,13921.0
1698672758.2721355,13921.0
1698672758.292545,13916.0
1698672758.3129547,13909.0
1698672758.333364,13912.0
1698672758.3537734,13911.0
1698672758.374183,13909.0
1698672758.3945923,13903.0
1698672758.4150019,13904.0
1698672758.4354115,13903.0
1698672758.4558208,13905.0
1698672758.4762301,13896.0
1698672758.49664,13899.0
1698672758.5170493,13897.0
1698672758.5374587,13853.0
1698672758.5578682,13894.0
1698672758.5782776,13893.0
1698672758.598687,13882.0
1698672758.6190968,13874.0
1698672758.639506,13868.0
1698672758.6599154,13866.0
1698672758.680325,13864.0
1698672758.7007344,13854.0
1698672758.721144,13851.0
1698672758.7415538,13843.0
1698672758.761963,13836.0
1698672758.7823722,13837.0
1698672758.8027816,13827.0
1698672758.8231914,13825.0
1698672758.8436007,13824.0
1698672758.8640106,13820.0
1698672758.8844197,13818.0
1698672758.904829,13811.0
1698672758.9252384,13814.0
1698672758.9456482,13812.0
1698672758.9660575,13773.0
1698672758.9864671,13800.0
1698672759.0068765,13798.0
1698672759.0272858,13796.0
1698672759.0476956,13796.0
1698672759.068105,13792.0
1698672759.0885143,13792.0
1698672759.108924,13792.0
1698672759.1293333,13786.0
1698672759.1497428,13787.0
1698672759.1701524,13787.0
1698672759.1905618,13781.0
1698672759.210971,13784.0
1698672759.2313807,13785.0
1698672759.25179,13776.0
1698672759.2721996,13775.0
1698672759.2926092,13768.0
1698672759.3130186,13764.0
1698672759.333428,13758.0
1698672759.3538375,13758.0
1698672759.374247,13753.0
1698672759.3946564,13746.0
1698672759.415066,13745.0
1698672759.435475,13739.0
1698672759.4558847,13734.0
1698672759.4762945,13732.0
1698672759.496704,13733.0
1698672759.5171132,13694.0
1698672759.5375228,13730.0
1698672759.557932,13722.0
1698672759.5783415,13712.0
1698672759.5987513,13711.0
1698672759.6191607,13709.0
1698672759.63957,13704.0
1698672759.6599796,13702.0
1698672759.680389,13697.0
1698672759.7007985,13697.0
1698672759.721208,13698.0
1698672759.7416174,13691.0
1698672759.7620268,13692.0
1698672759.7824364,13691.0
1698672759.802846,13689.0
1698672759.8232553,13680.0
1698672759.843665,13691.0
1698672759.8640742,13684.0
1698672759.8844836,13681.0
1698672759.9048932,13680.0
1698672759.9253027,13683.0
1698672759.945712,13674.0
1698672759.9661217,13643.0
1698672759.986531,13681.0
1698672760.0069404,13678.0
1698672760.0273502,13678.0
1698672760.0477595,13667.0
1698672760.0681689,13667.0
1698672760.0885785,13660.0
1698672760.1089878,13657.0
1698672760.1293976,13656.0
1698672760.149807,13649.0
1698672760.1702163,13648.0
1698672760.1906254,13648.0
1698672760.2110353,13653.0
1698672760.2314446,13652.0
1698672760.2518542,13650.0
1698672760.2722638,13663.0
1698672760.292673,13641.0
1698672760.3130825,13666.0
1698672760.333492,13646.0
1698672760.3539016,13646.0
1698672760.374311,13606.0
1698672760.3947206,13607.0
1698672760.41513,13638.0
1698672760.4355392,13650.0
1698672760.455949,13641.0
1698672760.4763584,13597.0
1698672760.4967678,13640.0
1698672760.5171773,13640.0
1698672760.537587,13640.0
1698672760.557996,13643.0
1698672760.5784059,13640.0
1698672760.5988152,13637.0
1698672760.6192245,13640.0
1698672760.6396341,13635.0
1698672760.6600437,13631.0
1698672760.680453,13626.0
1698672760.7008624,13625.0
1698672760.721272,13617.0
1698672760.7416813,13616.0
1698672760.762091,13610.0
1698672760.7825005,13568.0
1698672760.8029099,13604.0
1698672760.8233192,13598.0
1698672760.8437288,13596.0
1698672760.8641381,13593.0
1698672760.8845477,13588.0
1698672760.9049573,13590.0
1698672760.9253666,13587.0
1698672760.945776,13546.0
1698672760.9661856,13578.0
1698672760.986595,13577.0
1698672761.0070047,13535.0
1698672761.027414,13572.0
1698672761.0478234,13568.0
1698672761.068233,13572.0
1698672761.0886424,13571.0
1698672761.109052,13565.0
1698672761.1294615,13527.0
1698672761.1498709,13563.0
1698672761.1702805,13526.0
1698672761.1906898,13564.0
1698672761.2110991,13557.0
1698672761.2315087,13559.0
1698672761.2519183,13526.0
1698672761.2723277,13560.0
1698672761.292737,13559.0
1698672761.3131466,13560.0
1698672761.3335562,13523.0
1698672761.3539655,13559.0
1698672761.374375,13560.0
1698672761.3947845,13512.0
1698672761.4151938,13544.0
1698672761.4356036,13506.0
1698672761.456013,13544.0
1698672761.4764223,13542.0
1698672761.496832,13545.0
1698672761.5172412,13539.0
1698672761.5376508,13502.0
1698672761.5580604,13538.0
1698672761.5784695,13541.0
1698672761.598879,13539.0
1698672761.6192887,13500.0
1698672761.639698,13499.0
1698672761.6601076,13534.0
1698672761.6805172,13538.0
1698672761.7009265,13537.0
1698672761.721336,13536.0
1698672761.7417455,13532.0
1698672761.762155,13529.0
1698672761.7825644,13528.0
1698672761.8029742,13528.0
1698672761.8233833,13531.0
1698672761.8437927,13493.0
1698672761.8642025,13495.0
1698672761.8846118,13538.0
1698672761.9050212,13536.0
1698672761.925431,13538.0
1698672761.9458401,13538.0
1698672761.9662495,13533.0
1698672761.9866593,13536.0
1698672762.0070686,13497.0
1698672762.027478,13534.0
1698672762.0478878,13536.0
1698672762.068297,13492.0
1698672762.0887063,13529.0
1698672762.109116,13523.0
1698672762.1295254,13522.0
1698672762.1499348,13524.0
1698672762.1703444,13480.0
1698672762.190754,13518.0
1698672762.211163,13521.0
1698672762.2315729,13520.0
1698672762.2519822,13519.0
1698672762.2723916,13520.0
1698672762.2928011,13517.0
1698672762.3132107,13519.0
1698672762.33362,13520.0
1698672762.3540297,13517.0
1698672762.374439,13519.0
1698672762.3948483,13522.0
1698672762.4152582,13515.0
1698672762.4356675,13518.0
1698672762.4560769,13512.0
1698672762.4764864,13509.0
1698672762.4968958,13503.0
1698672762.5173054,13513.0
1698672762.537715,13469.0
1698672762.5581245,13509.0
1698672762.5785336,13511.0
1698672762.5989432,13466.0
1698672762.6193523,13509.0
1698672762.6397622,13505.0
1698672762.6601717,13502.0
1698672762.680581,13501.0
1698672762.7009904,13458.0
1698672762.7213998,13496.0
1698672762.7418096,13489.0
1698672762.762219,13490.0
1698672762.7826285,13481.0
1698672762.803038,13481.0
1698672762.8234472,13474.0
1698672762.843857,13474.0
1698672762.8642664,13469.0
1698672762.8846757,13471.0
1698672762.905085,13465.0
1698672762.9254947,13460.0
1698672762.945904,13461.0
1698672762.9663138,13455.0
1698672762.9867232,13462.0
1698672763.0071325,13458.0
1698672763.0275419,13459.0
1698672763.0479515,13460.0
1698672763.068361,13459.0
1698672763.0887704,13425.0
1698672763.10918,13457.0
1698672763.1295893,13462.0
1698672763.1499987,13459.0
1698672763.1704085,13423.0
1698672763.190818,13464.0
1698672763.2112272,13459.0
1698672763.2316368,13462.0
1698672763.2520459,13459.0
1698672763.2724555,13459.0
1698672763.2928653,13421.0
1698672763.3132749,13457.0
1698672763.333684,13462.0
1698672763.3540936,13463.0
1698672763.374503,13463.0
1698672763.3949125,13465.0
1698672763.415322,13462.0
1698672763.4357314,13463.0
1698672763.4561408,13461.0
1698672763.4765503,13456.0
1698672763.49696,13455.0
1698672763.5173693,13454.0
1698672763.5377789,13450.0
1698672763.5581882,13455.0
1698672763.5785975,13450.0
1698672763.5990071,13448.0
1698672763.6194167,13454.0
1698672763.639826,13446.0
1698672763.6602356,13444.0
1698672763.680645,13448.0
1698672763.7010543,13444.0
1698672763.7214642,13440.0
1698672763.7418735,13442.0
1698672763.7622828,13405.0
1698672763.7826924,13437.0
1698672763.8031018,13441.0
1698672763.8235116,13401.0
1698672763.843921,13435.0
1698672763.8643303,13435.0
1698672763.8847394,13439.0
1698672763.9051492,13442.0
1698672763.9255586,13438.0
1698672763.9459684,13440.0
1698672763.9663777,13442.0
1698672763.986787,13398.0
1698672764.0071962,13442.0
1698672764.027606,13443.0
1698672764.0480156,13441.0
1698672764.068425,13443.0
1698672764.0888345,13440.0
1698672764.1092439,13444.0
1698672764.1296532,13441.0
1698672764.150063,13442.0
1698672764.1704724,13442.0
1698672764.1908817,13441.0
1698672764.2112913,13437.0
1698672764.2317007,13436.0
1698672764.25211,13438.0
1698672764.2725198,13436.0
1698672764.2929292,13439.0
1698672764.3133385,13434.0
1698672764.333748,13439.0
1698672764.3541577,13436.0
1698672764.374567,13433.0
1698672764.3949766,13436.0
1698672764.415386,13435.0
1698672764.4357953,13440.0
1698672764.456205,13441.0
1698672764.4766145,13437.0
1698672764.4970238,13441.0
1698672764.5174332,13440.0
1698672764.5378428,13436.0
1698672764.558252,13439.0
1698672764.5786617,13435.0
1698672764.5990713,13436.0
1698672764.6194806,13437.0
1698672764.63989,13436.0
1698672764.6602995,13431.0
1698672764.680709,13429.0
1698672764.701119,13425.0
1698672764.721528,13429.0
1698672764.7419374,13388.0
1698672764.762347,13383.0
1698672764.7827563,13421.0
1698672764.803166,13414.0
1698672764.8235755,13412.0
1698672764.8439848,13414.0
1698672764.8643942,13407.0
1698672764.8848038,13407.0
1698672764.9052134,13401.0
1698672764.9256227,13401.0
1698672764.9460323,13401.0
1698672764.9664416,13393.0
1698672764.986851,13393.0
1698672765.0072606,13392.0
1698672765.0276701,13391.0
1698672765.0480795,13380.0
1698672765.068489,13384.0
1698672765.0888984,13349.0
1698672765.109308,13391.0
1698672765.1297176,13349.0
1698672765.150127,13387.0
1698672765.1705363,13349.0
1698672765.1909459,13390.0
1698672765.2113552,13392.0
1698672765.2317648,13391.0
1698672765.2521744,13393.0
1698672765.2725835,13392.0
1698672765.292993,13390.0
1698672765.3134027,13391.0
1698672765.333812,13396.0
1698672765.3542216,13396.0
1698672765.3746312,13389.0
1698672765.3950403,13355.0
1698672765.4154499,13398.0
1698672765.4358594,13390.0
1698672765.456269,13392.0
1698672765.4766784,13386.0
1698672765.497088,13392.0
1698672765.5174973,13382.0
1698672765.5379066,13348.0
1698672765.5583165,13387.0
1698672765.5787258,13382.0
1698672765.5991352,13386.0
1698672765.619545,13384.0
1698672765.639954,13383.0
1698672765.6603634,13385.0
1698672765.6807733,13385.0
1698672765.7011826,13387.0
1698672765.721592,13384.0
1698672765.7420018,13383.0
1698672765.7624109,13383.0
1698672765.7828205,13385.0
1698672765.80323,13383.0
1698672765.8236394,13377.0
1698672765.8440487,13374.0
1698672765.8644586,13374.0
1698672765.884868,13371.0
1698672765.905277,13373.0
1698672765.9256868,13372.0
1698672765.9460962,13375.0
1698672765.9665055,13376.0
1698672765.986915,13335.0
1698672766.0073247,13371.0
1698672766.0277338,13370.0
1698672766.0481436,13338.0
1698672766.068553,13378.0
1698672766.0889623,13374.0
1698672766.1093721,13372.0
1698672766.1297815,13378.0
1698672766.1501908,13376.0
1698672766.1706004,13370.0
1698672766.1910098,13367.0
1698672766.2114193,13366.0
1698672766.231829,13364.0
1698672766.2522383,13368.0
1698672766.2726476,13361.0
1698672766.2930572,13361.0
1698672766.3134665,13359.0
1698672766.3338761,13350.0
1698672766.3542857,13355.0
1698672766.374695,13357.0
1698672766.3951044,13318.0
1698672766.415514,13359.0
1698672766.4359236,13356.0
1698672766.456333,13356.0
1698672766.4767425,13353.0
1698672766.497152,13356.0
1698672766.5175612,13355.0
1698672766.537971,13356.0
1698672766.5583804,13365.0
1698672766.5787897,13357.0
1698672766.5991993,13356.0
1698672766.6196086,13354.0
1698672766.640018,13356.0
1698672766.6604276,13351.0
1698672766.6808372,13352.0
1698672766.7012465,13350.0
1698672766.721656,13350.0
1698672766.7420654,13345.0
1698672766.762475,13343.0
1698672766.7828846,13299.0
1698672766.803294,13332.0
1698672766.8237033,13333.0
1698672766.8441129,13329.0
1698672766.8645225,13326.0
1698672766.8849318,13324.0
1698672766.9053414,13313.0
1698672766.9257507,13321.0
1698672766.94616,13318.0
1698672766.9665697,13306.0
1698672766.9869792,13303.0
1698672767.0073888,13304.0
1698672767.0277982,13297.0
1698672767.0482075,13293.0
1698672767.0686169,13291.0
1698672767.0890267,13289.0
1698672767.109436,13287.0
1698672767.1298456,13274.0
1698672767.150255,13241.0
1698672767.1706643,13279.0
1698672767.191074,13279.0
1698672767.2114835,13275.0
1698672767.2318928,13276.0
1698672767.2523022,13271.0
1698672767.2727118,13274.0
1698672767.293121,13234.0
1698672767.3135307,13278.0
1698672767.3339403,13276.0
1698672767.3543496,13278.0
1698672767.374759,13240.0
1698672767.3951685,13271.0
1698672767.415578,13238.0
1698672767.4359875,13279.0
1698672767.456397,13274.0
1698672767.4768064,13273.0
1698672767.4972157,13272.0
1698672767.5176256,13271.0
1698672767.538035,13270.0
1698672767.5584443,13262.0
1698672767.5788538,13259.0
1698672767.5992632,13251.0
1698672767.6196725,13245.0
1698672767.6400826,13254.0
1698672767.6604917,13204.0
1698672767.680901,13238.0
1698672767.7013104,13234.0
1698672767.72172,13234.0
1698672767.7421296,13233.0
1698672767.7625391,13227.0
1698672767.7829485,13232.0
1698672767.8033578,13229.0
1698672767.8237672,13230.0
1698672767.844177,13226.0
1698672767.8645864,13232.0
1698672767.884996,13231.0
1698672767.9054053,13234.0
1698672767.9258146,13237.0
1698672767.9462242,13232.0
1698672767.9666338,13235.0
1698672767.9870431,13240.0
1698672768.0074527,13237.0
1698672768.027862,13240.0
1698672768.0482714,13203.0
1698672768.0686812,13237.0
1698672768.0890906,13244.0
1698672768.1095,13243.0
1698672768.1299095,13242.0
1698672768.1503189,13246.0
1698672768.1707284,13243.0
1698672768.191138,13247.0
1698672768.2115474,13237.0
1698672768.2319567,13243.0
1698672768.2523663,13237.0
1698672768.272776,13195.0
1698672768.2931852,13227.0
1698672768.3135948,13231.0
1698672768.3340042,13193.0
1698672768.3544135,13226.0
1698672768.374823,13227.0
1698672768.395233,13228.0
1698672768.415642,13226.0
1698672768.4360516,13221.0
1698672768.456461,13221.0
1698672768.4768703,13224.0
1698672768.4972801,13222.0
1698672768.5176897,13226.0
1698672768.5380988,13228.0
1698672768.5585084,13231.0
1698672768.5789175,13236.0
1698672768.5993273,13247.0
1698672768.619737,13219.0
1698672768.6401463,13266.0
1698672768.6605556,13279.0
1698672768.6809652,13286.0
1698672768.7013745,13311.0
1698672768.721784,13334.0
1698672768.7421937,13365.0
1698672768.762603,13397.0
1698672768.7830124,13426.0
1698672768.8034222,13454.0
1698672768.8238316,13492.0
1698672768.844241,13523.0
1698672768.8646505,13555.0
1698672768.8850598,13549.0
1698672768.9054692,13623.0
1698672768.925879,13659.0
1698672768.9462883,13691.0
1698672768.9666977,13728.0
1698672768.9871073,13763.0
1698672769.0075166,13791.0
1698672769.027926,13825.0
1698672769.0483358,13855.0
1698672769.0687451,13885.0
1698672769.0891542,13907.0
1698672769.109564,13929.0
1698672769.1299734,13913.0
1698672769.150383,13977.0
1698672769.1707926,13997.0
1698672769.191202,14019.0
1698672769.211611,14043.0
1698672769.2320209,14054.0
1698672769.2524304,14075.0
1698672769.2728398,14091.0
1698672769.2932494,14113.0
1698672769.3136587,14124.0
1698672769.334068,14142.0
1698672769.3544776,14164.0
1698672769.3748872,14179.0
1698672769.3952966,14195.0
1698672769.4157062,14213.0
1698672769.4361155,14222.0
1698672769.4565248,14240.0
1698672769.4769347,14252.0
1698672769.497344,14264.0
1698672769.5177534,14236.0
1698672769.538163,14287.0
1698672769.5585725,14259.0
1698672769.5789819,14306.0
1698672769.5993915,14321.0
1698672769.6198008,14333.0
1698672769.6402102,14302.0
1698672769.6606197,14353.0
1698672769.681029,14320.0
1698672769.7014387,14370.0
1698672769.721848,14385.0
1698672769.7422576,14389.0
1698672769.762667,14401.0
1698672769.7830765,14409.0
1698672769.803486,14366.0
1698672769.8238955,14422.0
1698672769.844305,14431.0
1698672769.8647144,14440.0
1698672769.8851237,14452.0
1698672769.9055336,14462.0
1698672769.925943,14474.0
1698672769.9463522,14489.0
1698672769.9667618,14453.0
1698672769.9871712,14506.0
1698672770.0075805,14518.0
1698672770.0279903,14533.0
1698672770.0483997,14543.0
1698672770.068809,14559.0
1698672770.0892186,14563.0
1698672770.109628,14576.0
1698672770.1300375,14577.0
1698672770.1504471,14591.0
1698672770.1708565,14590.0
1698672770.191266,14606.0
1698672770.2116754,14625.0
1698672770.232085,14636.0
1698672770.2524943,14640.0
1698672770.272904,14650.0
1698672770.2933133,14611.0
1698672770.3137228,14673.0
1698672770.3341322,14681.0
1698672770.3545415,14695.0
1698672770.3749511,14704.0
1698672770.3953607,14724.0
1698672770.41577,14733.0
1698672770.4361794,14745.0
1698672770.4565892,14713.0
1698672770.4769983,14763.0
1698672770.497408,14723.0
1698672770.5178175,14771.0
1698672770.5382268,14780.0
1698672770.5586364,14747.0
1698672770.579046,14797.0
1698672770.599455,14810.0
1698672770.6198647,14822.0
1698672770.6402743,14834.0
1698672770.6606836,14848.0
1698672770.6810932,14854.0
1698672770.7015028,14864.0
1698672770.7219121,14869.0
1698672770.7423215,14884.0
1698672770.762731,14887.0
1698672770.7831407,14850.0
1698672770.80355,14891.0
1698672770.8239598,14852.0
1698672770.844369,14859.0
1698672770.8647783,14899.0
1698672770.885188,14903.0
1698672770.9055974,14898.0
1698672770.9260068,14894.0
1698672770.9464166,14899.0
1698672770.9668257,14900.0
1698672770.987235,14895.0
1698672771.007645,14889.0
1698672771.0280542,14886.0
1698672771.0484636,14885.0
1698672771.068873,14891.0
1698672771.0892825,14889.0
1698672771.1096919,14885.0
1698672771.1301017,14886.0
1698672771.150511,14885.0
1698672771.1709204,14885.0
1698672771.1913297,14894.0
1698672771.2117395,14894.0
1698672771.232149,14899.0
1698672771.2525582,14903.0
1698672771.2729678,14913.0
1698672771.2933772,14915.0
1698672771.3137865,14918.0
1698672771.3341963,14918.0
1698672771.3546057,14926.0
1698672771.375015,14930.0
1698672771.3954246,14934.0
1698672771.415834,14937.0
1698672771.4362435,14936.0
1698672771.456653,14943.0
1698672771.4770625,14952.0
1698672771.4974718,14916.0
1698672771.5178812,14967.0
1698672771.538291,14974.0
1698672771.5587003,14981.0
1698672771.5791101,14988.0
1698672771.5995193,14986.0
1698672771.6199286,14989.0
1698672771.6403384,14991.0
1698672771.6607478,14960.0
1698672771.681157,14965.0
1698672771.701567,15013.0
1698672771.721976,15022.0
1698672771.7423854,15032.0
1698672771.7627952,15044.0
1698672771.7832046,15045.0
1698672771.803614,15051.0
1698672771.8240235,15054.0
1698672771.8444328,15061.0
1698672771.8648422,15066.0
1698672771.885252,15066.0
1698672771.9056613,15074.0
1698672771.9260707,15080.0
1698672771.9464803,15087.0
1698672771.9668899,15096.0
1698672771.9872992,15106.0
1698672772.0077088,15065.0
1698672772.0281181,15113.0
1698672772.0485275,15117.0
1698672772.068937,15070.0
1698672772.0893466,15114.0
1698672772.109756,15106.0
1698672772.1301656,15095.0
1698672772.150575,15081.0
1698672772.1709843,15074.0
1698672772.191394,15008.0
1698672772.2118037,15045.0
1698672772.2322128,15035.0
1698672772.2526224,15019.0
1698672772.2730315,15007.0
1698672772.2934413,14992.0
1698672772.3138509,14981.0
1698672772.3342605,14969.0
1698672772.3546696,14964.0
1698672772.3750792,14969.0
1698672772.3954883,14961.0
1698672772.415898,14959.0
1698672772.4363077,14962.0
1698672772.456717,14970.0
1698672772.4771264,14968.0
1698672772.497536,14972.0
1698672772.5179455,14971.0
1698672772.5383549,14966.0
1698672772.5587645,14966.0
1698672772.5791738,14968.0
1698672772.5995831,14969.0
1698672772.619993,14972.0
1698672772.6404023,14985.0
1698672772.6608117,15002.0
1698672772.6812212,15022.0
1698672772.7016306,14990.0
1698672772.72204,15047.0
1698672772.7424498,15049.0
1698672772.762859,15012.0
1698672772.7832685,15044.0
1698672772.803678,15006.0
1698672772.8240874,15049.0
1698672772.844497,15059.0
1698672772.8649065,15062.0
1698672772.885316,15067.0
1698672772.905725,15069.0
1698672772.9261348,15076.0
1698672772.9465444,15077.0
1698672772.966954,15032.0
1698672772.9873633,15081.0
1698672773.0077727,15083.0
1698672773.0281818,15089.0
1698672773.0485916,15092.0
1698672773.0690012,15058.0
1698672773.0894105,15105.0
1698672773.1098201,15096.0
1698672773.1302295,15109.0
1698672773.1506388,15063.0
1698672773.1710486,15104.0
1698672773.191458,15110.0
1698672773.2118673,15119.0
1698672773.232277,15119.0
1698672773.2526863,15123.0
1698672773.2730958,15138.0
1698672773.2935054,15137.0
1698672773.3139148,15141.0
1698672773.3343241,15143.0
1698672773.3547337,15146.0
1698672773.375143,15154.0
1698672773.3955526,15161.0
1698672773.4159622,15163.0
1698672773.4363716,15167.0
1698672773.456781,15171.0
1698672773.4771905,15173.0
1698672773.4976,15133.0
1698672773.5180094,15182.0
1698672773.538419,15181.0
1698672773.5588284,15186.0
1698672773.5792377,15187.0
1698672773.5996478,15184.0
1698672773.6200569,15194.0
1698672773.6404662,15203.0
1698672773.6608756,15208.0
1698672773.6812851,15215.0
1698672773.7016945,15178.0
1698672773.7221043,15226.0
1698672773.7425137,15230.0
1698672773.762923,15193.0
1698672773.7833326,15244.0
1698672773.803742,15245.0
1698672773.8241515,15255.0
1698672773.844561,15258.0
1698672773.8649704,15225.0
1698672773.8853798,15271.0
1698672773.9057894,15274.0
1698672773.926199,15276.0
1698672773.9466083,15279.0
1698672773.967018,15282.0
1698672773.9874272,15284.0
1698672774.0078368,15291.0
1698672774.0282462,15302.0
1698672774.0486557,15309.0
1698672774.069065,15315.0
1698672774.0894747,15329.0
1698672774.109884,15325.0
1698672774.1302936,15294.0
1698672774.1507032,15337.0
1698672774.1711123,15296.0
1698672774.191522,15344.0
1698672774.2119315,15347.0
1698672774.2323408,15351.0
1698672774.2527504,15357.0
1698672774.27316,15364.0
1698672774.293569,15366.0
1698672774.3139787,15372.0
1698672774.3343883,15375.0
1698672774.3547976,15381.0
1698672774.3752072,15385.0
1698672774.3956168,15393.0
1698672774.4160259,15347.0
1698672774.4364355,15404.0
1698672774.456845,15405.0
1698672774.4772546,15368.0
1698672774.497664,15410.0
1698672774.5180736,15418.0
1698672774.538483,15381.0
1698672774.5588923,15427.0
1698672774.579302,15434.0
1698672774.5997114,15433.0
1698672774.6201208,15437.0
1698672774.6405306,15440.0
1698672774.6609397,15441.0
1698672774.681349,15447.0
1698672774.7017589,15448.0
1698672774.7221682,15463.0
1698672774.7425776,15467.0
1698672774.7629871,15479.0
1698672774.7833965,15486.0
1698672774.803806,15493.0
1698672774.8242157,15497.0
1698672774.844625,15500.0
1698672774.8650343,15506.0
1698672774.885444,15503.0
1698672774.9058535,15500.0
1698672774.9262629,15496.0
1698672774.9466724,15501.0
1698672774.9670818,15488.0
1698672774.9874911,15469.0
