ts(msec),PPG
1698920214011.8557,20200.0
1698920214032.2273,20206.0
1698920214052.5989,20198.0
1698920214072.9705,20202.0
1698920214093.342,20204.0
1698920214113.7136,20199.0
1698920214134.0852,20195.0
1698920214154.4568,20192.0
1698920214174.8284,20192.0
1698920214195.2,20191.0
1698920214215.5715,20193.0
1698920214235.943,20187.0
1698920214256.3147,20189.0
1698920214276.6863,20193.0
1698920214297.058,20191.0
1698920214317.4294,20195.0
1698920214337.801,20193.0
1698920214358.1726,20184.0
1698920214378.5444,20186.0
1698920214398.916,20190.0
1698920214419.2876,20193.0
1698920214439.6592,20190.0
1698920214460.0308,20186.0
1698920214480.4023,20192.0
1698920214500.774,20193.0
1698920214521.1455,20186.0
1698920214541.517,20190.0
1698920214561.889,20192.0
1698920214582.2605,20193.0
1698920214602.6318,20183.0
1698920214623.0034,20188.0
1698920214643.375,20186.0
1698920214663.7466,20189.0
1698920214684.1182,20188.0
1698920214704.4895,20189.0
1698920214724.861,20191.0
1698920214745.233,20187.0
1698920214765.6045,20185.0
1698920214785.976,20187.0
1698920214806.3477,20191.0
1698920214826.7192,20180.0
1698920214847.0908,20189.0
1698920214867.4624,20184.0
1698920214887.834,20184.0
1698920214908.2056,20186.0
1698920214928.5774,20184.0
1698920214948.949,20185.0
1698920214969.3206,20183.0
1698920214989.692,20184.0
1698920215010.0637,20182.0
1698920215030.4353,20174.0
1698920215050.807,20163.0
1698920215071.1785,20158.0
1698920215091.55,20172.0
1698920215111.9216,20172.0
1698920215132.2932,20171.0
1698920215152.6648,20176.0
1698920215173.0364,20174.0
1698920215193.408,20179.0
1698920215213.7795,20175.0
1698920215234.1511,20172.0
1698920215254.5227,20170.0
1698920215274.8943,20162.0
1698920215295.266,20158.0
1698920215315.6377,20163.0
1698920215336.009,20159.0
1698920215356.3806,20165.0
1698920215376.7522,20162.0
1698920215397.1238,20162.0
1698920215417.4954,20163.0
1698920215437.867,20168.0
1698920215458.2383,20160.0
1698920215478.61,20162.0
1698920215498.982,20165.0
1698920215519.3535,20162.0
1698920215539.725,20162.0
1698920215560.0967,20162.0
1698920215580.4685,20162.0
1698920215600.8398,20162.0
1698920215621.2114,20169.0
1698920215641.583,20165.0
1698920215661.9546,20168.0
1698920215682.3262,20169.0
1698920215702.6978,20160.0
1698920215723.069,20164.0
1698920215743.441,20165.0
1698920215763.8125,20169.0
1698920215784.184,20169.0
1698920215804.5557,20174.0
1698920215824.9272,20172.0
1698920215845.2988,20169.0
1698920215865.6704,20177.0
1698920215886.042,20172.0
1698920215906.4136,20170.0
1698920215926.7852,20172.0
1698920215947.1567,20171.0
1698920215967.5283,20179.0
1698920215987.9,20176.0
1698920216008.2715,20176.0
1698920216028.643,20164.0
1698920216049.015,20172.0
1698920216069.3865,20166.0
1698920216089.758,20166.0
1698920216110.1296,20172.0
1698920216130.5012,20173.0
1698920216150.8728,20172.0
1698920216171.2444,20171.0
1698920216191.616,20160.0
1698920216211.9875,20152.0
1698920216232.3591,20151.0
1698920216252.7307,20149.0
1698920216273.1023,20150.0
1698920216293.474,20152.0
1698920216313.8457,20153.0
1698920216334.217,20159.0
1698920216354.5886,20152.0
1698920216374.9602,20152.0
1698920216395.3318,20158.0
1698920216415.7034,20160.0
1698920216436.075,20160.0
1698920216456.4463,20161.0
1698920216476.818,20166.0
1698920216497.1897,20166.0
1698920216517.5613,20167.0
1698920216537.9329,20171.0
1698920216558.3044,20173.0
1698920216578.676,20176.0
1698920216599.0476,20169.0
1698920216619.4194,20170.0
1698920216639.791,20169.0
1698920216660.1626,20170.0
1698920216680.5342,20169.0
1698920216700.9058,20168.0
1698920216721.277,20170.0
1698920216741.649,20169.0
1698920216762.0205,20167.0
1698920216782.392,20168.0
1698920216802.7637,20169.0
1698920216823.1353,20164.0
1698920216843.5068,20168.0
1698920216863.8784,20168.0
1698920216884.25,20162.0
1698920216904.6216,20168.0
1698920216924.9932,20168.0
1698920216945.3647,20169.0
1698920216965.7363,20167.0
1698920216986.108,20168.0
1698920217006.4795,20160.0
1698920217026.851,20160.0
1698920217047.223,20155.0
1698920217067.5942,20157.0
1698920217087.9658,20155.0
1698920217108.3374,20155.0
1698920217128.709,20150.0
1698920217149.0806,20149.0
1698920217169.4524,20155.0
1698920217189.824,20149.0
1698920217210.1956,20154.0
1698920217230.5671,20147.0
1698920217250.9387,20152.0
1698920217271.3103,20152.0
1698920217291.682,20151.0
1698920217312.0537,20153.0
1698920217332.425,20147.0
1698920217352.7966,20155.0
1698920217373.1682,20152.0
1698920217393.5398,20146.0
1698920217413.9114,20147.0
1698920217434.283,20146.0
1698920217454.6543,20141.0
1698920217475.026,20144.0
1698920217495.3977,20133.0
1698920217515.7693,20145.0
1698920217536.1409,20140.0
1698920217556.5125,20139.0
1698920217576.884,20131.0
1698920217597.2556,20113.0
1698920217617.6272,20115.0
1698920217637.9988,20112.0
1698920217658.3704,20120.0
1698920217678.742,20131.0
1698920217699.1135,20127.0
1698920217719.485,20129.0
1698920217739.857,20131.0
1698920217760.2285,20127.0
1698920217780.6,20124.0
1698920217800.9717,20126.0
1698920217821.3433,20136.0
1698920217841.7148,20132.0
1698920217862.0864,20127.0
1698920217882.458,20120.0
1698920217902.8296,20119.0
1698920217923.2012,20119.0
1698920217943.5728,20117.0
1698920217963.9443,20113.0
1698920217984.316,20118.0
1698920218004.6875,20112.0
1698920218025.059,20113.0
1698920218045.431,20106.0
1698920218065.8022,20108.0
1698920218086.1738,20097.0
1698920218106.5454,20101.0
1698920218126.917,20090.0
1698920218147.2886,20086.0
1698920218167.6602,20082.0
1698920218188.0315,20077.0
1698920218208.4033,20073.0
1698920218228.775,20049.0
1698920218249.1465,20056.0
1698920218269.518,20053.0
1698920218289.89,20065.0
1698920218310.2617,20068.0
1698920218330.633,20071.0
1698920218351.0046,20079.0
1698920218371.3762,20079.0
1698920218391.7478,20088.0
1698920218412.1194,20091.0
1698920218432.491,20095.0
1698920218452.8623,20096.0
1698920218473.234,20098.0
1698920218493.6057,20108.0
1698920218513.9773,20105.0
1698920218534.3489,20108.0
1698920218554.7205,20108.0
1698920218575.092,20110.0
1698920218595.4636,20103.0
1698920218615.8352,20111.0
1698920218636.2068,20111.0
1698920218656.5784,20119.0
1698920218676.95,20113.0
1698920218697.3215,20114.0
1698920218717.693,20120.0
1698920218738.0647,20123.0
1698920218758.4363,20122.0
1698920218778.808,20125.0
1698920218799.1794,20127.0
1698920218819.551,20120.0
1698920218839.9226,20120.0
1698920218860.2944,20110.0
1698920218880.666,20102.0
1698920218901.0376,20103.0
1698920218921.4092,20099.0
1698920218941.7808,20114.0
1698920218962.1523,20115.0
1698920218982.524,20126.0
1698920219002.8955,20123.0
1698920219023.267,20123.0
1698920219043.639,20124.0
1698920219064.0105,20125.0
1698920219084.3818,20127.0
1698920219104.7534,20127.0
1698920219125.125,20123.0
1698920219145.4966,20128.0
1698920219165.8682,20134.0
1698920219186.2395,20134.0
1698920219206.611,20142.0
1698920219226.983,20143.0
1698920219247.3545,20141.0
1698920219267.726,20146.0
1698920219288.0977,20147.0
1698920219308.4692,20153.0
1698920219328.8408,20154.0
1698920219349.2124,20151.0
1698920219369.584,20151.0
1698920219389.9556,20159.0
1698920219410.3274,20160.0
1698920219430.699,20160.0
1698920219451.0706,20160.0
1698920219471.442,20168.0
1698920219491.8137,20164.0
1698920219512.1853,20162.0
1698920219532.557,20164.0
1698920219552.9285,20171.0
1698920219573.3,20170.0
1698920219593.6716,20170.0
1698920219614.0432,20167.0
1698920219634.4148,20170.0
1698920219654.7864,20170.0
1698920219675.158,20171.0
1698920219695.5295,20174.0
1698920219715.9011,20169.0
1698920219736.2727,20175.0
1698920219756.6443,20172.0
1698920219777.016,20164.0
1698920219797.3877,20170.0
1698920219817.759,20167.0
1698920219838.1306,20169.0
1698920219858.5022,20171.0
1698920219878.8738,20167.0
1698920219899.2454,20165.0
1698920219919.617,20171.0
1698920219939.9883,20169.0
1698920219960.36,20165.0
1698920219980.732,20164.0
1698920220001.1035,20164.0
1698920220021.475,20155.0
1698920220041.8467,20156.0
1698920220062.2185,20148.0
1698920220082.5898,20151.0
1698920220102.9614,20147.0
1698920220123.333,20147.0
1698920220143.7046,20148.0
1698920220164.0762,20129.0
1698920220184.4478,20124.0
1698920220204.819,20140.0
1698920220225.191,20146.0
1698920220245.5625,20146.0
1698920220265.934,20153.0
1698920220286.3057,20158.0
1698920220306.6772,20163.0
1698920220327.0488,20162.0
1698920220347.4204,20162.0
1698920220367.792,20163.0
1698920220388.1636,20166.0
1698920220408.5352,20174.0
1698920220428.9067,20170.0
1698920220449.2783,20172.0
1698920220469.65,20171.0
1698920220490.0215,20163.0
1698920220510.393,20171.0
1698920220530.765,20189.0
1698920220551.1365,20191.0
1698920220571.508,20191.0
1698920220591.8796,20200.0
1698920220612.2512,20197.0
1698920220632.6228,20194.0
1698920220652.9944,20186.0
1698920220673.366,20180.0
1698920220693.7375,20174.0
1698920220714.1091,20180.0
1698920220734.4807,20177.0
1698920220754.8523,20180.0
1698920220775.224,20185.0
1698920220795.5957,20184.0
1698920220815.967,20189.0
1698920220836.3386,20179.0
1698920220856.7102,20180.0
1698920220877.0818,20174.0
1698920220897.4534,20167.0
1698920220917.825,20163.0
1698920220938.1963,20154.0
1698920220958.568,20155.0
1698920220978.9397,20152.0
1698920220999.3113,20155.0
1698920221019.6829,20156.0
1698920221040.0544,20160.0
1698920221060.426,20153.0
1698920221080.7976,20158.0
1698920221101.1694,20149.0
1698920221121.541,20157.0
1698920221141.9126,20159.0
1698920221162.2842,20159.0
1698920221182.6558,20161.0
1698920221203.027,20157.0
1698920221223.399,20162.0
1698920221243.7705,20162.0
1698920221264.142,20165.0
1698920221284.5137,20160.0
1698920221304.8853,20164.0
1698920221325.2568,20165.0
1698920221345.6284,20163.0
1698920221386.3716,20168.0
1698920221406.7432,20170.0
1698920221427.1147,20165.0
1698920221447.4863,20153.0
1698920221467.858,20151.0
1698920221488.2295,20163.0
1698920221508.601,20161.0
1698920221528.973,20168.0
1698920221549.3442,20170.0
1698920221569.7158,20171.0
1698920221590.0874,20170.0
1698920221610.459,20172.0
1698920221630.8306,20175.0
1698920221651.2024,20177.0
1698920221671.574,20169.0
1698920221691.9456,20176.0
1698920221712.3171,20174.0
1698920221732.6887,20174.0
1698920221753.0603,20174.0
1698920221773.432,20181.0
1698920221793.8037,20179.0
1698920221814.175,20174.0
1698920221834.5466,20176.0
1698920221854.9182,20174.0
1698920221875.2898,20176.0
1698920221895.6614,20176.0
1698920221916.033,20175.0
1698920221936.4043,20179.0
1698920221956.776,20175.0
1698920221977.1477,20177.0
1698920221997.5193,20173.0
1698920222017.8909,20174.0
1698920222038.2625,20170.0
1698920222058.634,20169.0
1698920222079.0056,20170.0
1698920222099.3772,20170.0
1698920222119.7488,20167.0
1698920222140.1204,20173.0
1698920222160.492,20168.0
1698920222180.8635,20168.0
1698920222201.235,20167.0
1698920222221.607,20168.0
1698920222241.9785,20165.0
1698920222262.35,20163.0
1698920222282.7217,20161.0
1698920222303.0933,20166.0
1698920222323.4648,20160.0
1698920222343.8364,20161.0
1698920222364.208,20164.0
1698920222384.5796,20161.0
1698920222404.9512,20158.0
1698920222425.3228,20159.0
1698920222445.6943,20161.0
1698920222466.066,20158.0
1698920222486.4375,20155.0
1698920222506.809,20160.0
1698920222527.181,20156.0
1698920222547.5522,20157.0
1698920222567.9238,20153.0
1698920222588.2954,20153.0
1698920222608.667,20146.0
1698920222629.0386,20153.0
1698920222649.4102,20151.0
1698920222669.7815,20142.0
1698920222690.1533,20145.0
1698920222710.525,20133.0
1698920222730.8965,20114.0
1698920222751.268,20117.0
1698920222771.64,20123.0
1698920222792.0117,20128.0
1698920222812.383,20134.0
1698920222832.7546,20128.0
1698920222853.1262,20131.0
1698920222873.4978,20136.0
1698920222893.8694,20132.0
1698920222914.241,20133.0
1698920222934.6123,20133.0
1698920222954.984,20137.0
1698920222975.3557,20136.0
1698920222995.7273,20138.0
1698920223016.0989,20140.0
1698920223036.4705,20137.0
1698920223056.842,20139.0
1698920223077.2136,20144.0
1698920223097.5852,20138.0
1698920223117.9568,20145.0
1698920223138.3284,20146.0
1698920223158.7,20143.0
1698920223179.0715,20141.0
1698920223199.443,20144.0
1698920223219.8147,20147.0
1698920223240.1863,20145.0
1698920223260.558,20145.0
1698920223280.9294,20150.0
1698920223301.301,20150.0
1698920223321.6726,20145.0
1698920223342.0444,20143.0
1698920223362.416,20147.0
1698920223382.7876,20143.0
1698920223403.1592,20144.0
1698920223423.5308,20140.0
1698920223443.9023,20139.0
1698920223464.274,20140.0
1698920223484.6455,20144.0
1698920223505.017,20143.0
1698920223525.389,20149.0
1698920223545.7605,20150.0
1698920223566.1318,20151.0
1698920223586.5034,20153.0
1698920223606.875,20152.0
1698920223627.2466,20158.0
1698920223647.6182,20159.0
1698920223667.9895,20155.0
1698920223688.361,20155.0
1698920223708.733,20163.0
1698920223729.1045,20162.0
1698920223749.476,20152.0
1698920223769.8477,20156.0
1698920223790.2192,20158.0
1698920223810.5908,20157.0
1698920223830.9624,20154.0
1698920223851.334,20158.0
1698920223871.7056,20156.0
1698920223892.0774,20163.0
1698920223912.449,20156.0
1698920223932.8206,20160.0
1698920223953.192,20153.0
1698920223973.5637,20138.0
1698920223993.9353,20133.0
1698920224014.307,20144.0
1698920224034.6785,20131.0
1698920224055.05,20140.0
1698920224075.4216,20146.0
1698920224095.7932,20153.0
1698920224116.1648,20150.0
1698920224136.5364,20155.0
1698920224156.908,20152.0
1698920224177.2795,20151.0
1698920224197.6511,20156.0
1698920224218.0227,20153.0
1698920224238.3943,20153.0
1698920224258.766,20154.0
1698920224279.1377,20156.0
1698920224299.509,20149.0
1698920224319.8806,20149.0
1698920224340.2522,20147.0
1698920224360.6238,20152.0
1698920224380.9954,20146.0
1698920224401.367,20146.0
1698920224421.7383,20147.0
1698920224442.11,20148.0
1698920224462.482,20146.0
1698920224482.8535,20143.0
1698920224503.225,20144.0
1698920224523.5967,20143.0
1698920224543.9685,20139.0
1698920224564.3398,20137.0
1698920224584.7114,20141.0
1698920224605.083,20137.0
1698920224625.4546,20141.0
1698920224645.8262,20139.0
1698920224666.1978,20135.0
1698920224686.569,20137.0
1698920224706.941,20134.0
1698920224727.3125,20133.0
1698920224747.684,20139.0
1698920224768.0557,20138.0
1698920224788.4272,20139.0
1698920224808.7988,20138.0
1698920224829.1704,20142.0
1698920224849.542,20139.0
1698920224869.9136,20138.0
1698920224890.2852,20141.0
1698920224910.6567,20145.0
1698920224931.0283,20144.0
1698920224951.4,20142.0
1698920224971.7715,20144.0
1698920224992.143,20136.0
1698920225012.515,20134.0
1698920225032.8865,20141.0
1698920225053.258,20139.0
1698920225073.6296,20136.0
1698920225094.0012,20139.0
1698920225114.3728,20133.0
1698920225134.7444,20141.0
1698920225155.116,20138.0
1698920225175.4875,20140.0
1698920225195.8591,20122.0
1698920225216.2307,20116.0
1698920225236.6023,20116.0
1698920225256.974,20117.0
1698920225277.3457,20113.0
1698920225297.717,20118.0
1698920225318.0886,20119.0
1698920225338.4602,20115.0
1698920225358.8318,20119.0
1698920225379.2034,20122.0
1698920225399.575,20131.0
1698920225419.9463,20121.0
1698920225440.318,20122.0
1698920225460.6897,20124.0
1698920225481.0613,20123.0
1698920225501.4329,20122.0
1698920225521.8044,20134.0
1698920225542.176,20131.0
1698920225562.5476,20129.0
1698920225582.9194,20134.0
1698920225603.291,20132.0
1698920225623.6626,20133.0
1698920225644.0342,20134.0
1698920225664.4058,20133.0
1698920225684.777,20140.0
1698920225705.149,20134.0
1698920225725.5205,20132.0
1698920225745.892,20138.0
1698920225766.2637,20137.0
1698920225786.6353,20135.0
1698920225807.0068,20135.0
1698920225827.3784,20137.0
1698920225847.75,20135.0
1698920225868.1216,20135.0
1698920225888.4932,20133.0
1698920225908.8647,20136.0
1698920225929.2363,20132.0
1698920225949.608,20135.0
1698920225969.9795,20139.0
1698920225990.351,20135.0
1698920226010.723,20136.0
1698920226031.0942,20140.0
1698920226051.4658,20134.0
1698920226071.8374,20134.0
1698920226092.209,20132.0
1698920226112.5806,20132.0
1698920226132.9524,20141.0
1698920226153.324,20130.0
1698920226173.6956,20138.0
1698920226194.0671,20132.0
1698920226214.4387,20132.0
1698920226234.8103,20128.0
1698920226255.182,20136.0
1698920226275.5537,20131.0
1698920226295.925,20131.0
1698920226316.2966,20133.0
1698920226336.6682,20129.0
1698920226357.0398,20129.0
1698920226377.4114,20132.0
1698920226397.783,20124.0
1698920226418.1543,20120.0
1698920226438.526,20117.0
1698920226458.8977,20114.0
1698920226479.2693,20119.0
1698920226499.6409,20118.0
1698920226520.0125,20116.0
1698920226540.384,20110.0
1698920226560.7556,20098.0
1698920226581.1272,20089.0
1698920226601.4988,20093.0
1698920226621.8704,20101.0
1698920226642.242,20104.0
1698920226662.6135,20108.0
1698920226682.985,20109.0
1698920226703.357,20105.0
1698920226723.7285,20108.0
1698920226744.1,20109.0
1698920226764.4717,20111.0
1698920226784.8433,20111.0
1698920226805.2148,20106.0
1698920226825.5864,20110.0
1698920226845.958,20114.0
1698920226866.3296,20107.0
1698920226886.7012,20114.0
1698920226907.0728,20108.0
1698920226927.4443,20104.0
1698920226947.816,20106.0
1698920226968.1875,20104.0
1698920226988.559,20106.0
1698920227008.931,20102.0
1698920227029.3022,20098.0
1698920227049.6738,20102.0
1698920227070.0454,20100.0
1698920227090.417,20109.0
1698920227110.7886,20106.0
1698920227131.1602,20103.0
1698920227151.5315,20094.0
1698920227171.9033,20096.0
1698920227192.275,20097.0
1698920227212.6465,20098.0
1698920227233.018,20099.0
1698920227253.39,20101.0
1698920227273.7617,20106.0
1698920227294.133,20098.0
1698920227314.5046,20104.0
1698920227334.8762,20104.0
1698920227355.2478,20100.0
1698920227375.6194,20108.0
1698920227395.991,20109.0
1698920227416.3623,20101.0
1698920227436.734,20108.0
1698920227457.1057,20103.0
1698920227477.4773,20107.0
1698920227497.8489,20109.0
1698920227518.2205,20107.0
1698920227538.592,20104.0
1698920227558.9636,20103.0
1698920227579.3352,20102.0
1698920227599.7068,20100.0
1698920227620.0784,20108.0
1698920227640.45,20099.0
1698920227660.8215,20109.0
1698920227681.193,20104.0
1698920227701.5647,20105.0
1698920227721.9363,20100.0
1698920227742.308,20101.0
1698920227762.6794,20089.0
1698920227783.051,20085.0
1698920227803.4226,20079.0
1698920227823.7944,20080.0
1698920227844.166,20077.0
1698920227864.5376,20073.0
1698920227884.9092,20070.0
1698920227905.2808,20076.0
1698920227925.6523,20079.0
1698920227946.024,20082.0
1698920227966.3955,20087.0
1698920227986.767,20082.0
1698920228007.139,20088.0
1698920228027.5105,20091.0
1698920228047.8818,20085.0
1698920228068.2534,20084.0
1698920228088.625,20083.0
1698920228108.9966,20083.0
1698920228129.3682,20086.0
1698920228149.7395,20083.0
1698920228170.111,20084.0
1698920228190.483,20082.0
1698920228210.8545,20086.0
1698920228231.226,20082.0
1698920228251.5977,20083.0
1698920228271.9692,20073.0
1698920228292.3408,20079.0
1698920228312.7124,20084.0
1698920228333.084,20079.0
1698920228353.4556,20081.0
1698920228373.8274,20076.0
1698920228394.199,20077.0
1698920228414.5706,20071.0
1698920228434.942,20075.0
1698920228455.3137,20069.0
1698920228475.6853,20072.0
1698920228496.057,20074.0
1698920228516.4285,20074.0
1698920228536.8,20066.0
1698920228557.1716,20062.0
1698920228577.5432,20062.0
1698920228597.9148,20059.0
1698920228618.2864,20055.0
1698920228638.658,20060.0
1698920228659.0295,20054.0
1698920228679.4011,20049.0
1698920228699.7727,20051.0
1698920228720.1443,20050.0
1698920228740.516,20045.0
1698920228760.8877,20033.0
1698920228781.259,20027.0
1698920228801.6306,20025.0
1698920228822.0022,20028.0
1698920228842.3738,20028.0
1698920228862.7454,20023.0
1698920228883.117,20024.0
1698920228903.4883,20025.0
1698920228923.86,20020.0
1698920228944.232,20027.0
1698920228964.6035,20021.0
1698920228984.975,20023.0
1698920229005.3467,20024.0
1698920229025.7185,20022.0
1698920229046.0898,20014.0
1698920229066.4614,20018.0
1698920229086.833,20020.0
1698920229107.2046,20012.0
1698920229127.5762,20011.0
1698920229147.9478,20015.0
1698920229168.319,20016.0
1698920229188.691,20015.0
1698920229209.0625,20012.0
1698920229229.434,20019.0
1698920229249.8057,20020.0
1698920229270.1772,20026.0
1698920229290.5488,20022.0
1698920229310.9204,20027.0
1698920229331.292,20028.0
1698920229351.6636,20027.0
1698920229372.0352,20030.0
1698920229392.4067,20020.0
1698920229412.7783,20023.0
1698920229433.15,20019.0
1698920229453.5215,20023.0
1698920229473.893,20018.0
1698920229494.265,20015.0
1698920229514.6365,20017.0
1698920229535.008,20022.0
1698920229555.3796,20022.0
1698920229575.7512,20028.0
1698920229596.1228,20024.0
1698920229616.4944,20020.0
1698920229636.866,20018.0
1698920229657.2375,20020.0
1698920229677.6091,20017.0
1698920229697.9807,20014.0
1698920229718.3523,20018.0
1698920229738.724,20022.0
1698920229759.0957,20027.0
1698920229779.467,20029.0
1698920229799.8386,20023.0
1698920229820.2102,20027.0
1698920229840.5818,20027.0
1698920229860.9534,20023.0
1698920229881.325,20022.0
1698920229901.6963,20026.0
1698920229922.068,20023.0
1698920229942.4397,20028.0
1698920229962.8113,20026.0
1698920229983.1829,20018.0
1698920230003.5544,20018.0
1698920230023.926,20019.0
1698920230044.2976,20016.0
1698920230064.6694,20014.0
1698920230085.041,20010.0
1698920230105.4126,20011.0
1698920230125.7842,20005.0
1698920230146.1558,20009.0
1698920230166.527,20008.0
1698920230186.899,20007.0
1698920230207.2705,20007.0
1698920230227.642,19999.0
1698920230248.0137,20008.0
1698920230268.3853,20007.0
1698920230288.7568,20006.0
1698920230309.1284,19998.0
1698920230329.5,19998.0
1698920230349.8716,19996.0
1698920230370.2432,19997.0
1698920230390.6147,19989.0
1698920230410.9863,19977.0
1698920230431.358,19970.0
1698920230451.7295,19979.0
1698920230472.101,19974.0
1698920230492.473,19984.0
1698920230512.8442,19982.0
1698920230533.2158,19984.0
1698920230553.5874,19983.0
1698920230573.959,19980.0
1698920230594.3306,19975.0
1698920230614.7024,19980.0
1698920230635.074,19977.0
1698920230655.4456,19978.0
1698920230675.8171,19978.0
1698920230696.1887,19973.0
1698920230716.5603,19978.0
1698920230736.932,19977.0
1698920230757.3037,19981.0
1698920230777.675,19981.0
1698920230798.0466,19981.0
1698920230818.4182,19981.0
1698920230838.7898,19984.0
1698920230859.1614,19980.0
1698920230879.533,19984.0
1698920230899.9043,19980.0
1698920230920.276,19981.0
1698920230940.6477,19986.0
1698920230961.0193,19987.0
1698920230981.3909,19986.0
1698920231001.7625,19988.0
1698920231022.134,19991.0
1698920231042.5056,19994.0
1698920231062.8772,19995.0
1698920231083.2488,20002.0
1698920231103.6204,20002.0
1698920231123.992,20004.0
1698920231144.3635,20008.0
1698920231164.735,20015.0
1698920231185.107,20010.0
1698920231205.4785,20015.0
1698920231225.85,20019.0
1698920231246.2217,20020.0
1698920231266.5933,20016.0
1698920231286.9648,20015.0
1698920231307.3364,20014.0
1698920231327.708,20010.0
1698920231348.0796,20006.0
1698920231368.4512,20003.0
1698920231388.8228,20007.0
1698920231409.1943,20007.0
1698920231429.566,20006.0
1698920231449.9375,20004.0
1698920231470.309,20008.0
1698920231490.681,20004.0
1698920231511.0522,20005.0
1698920231531.4238,20007.0
1698920231551.7954,19997.0
1698920231572.167,20003.0
1698920231592.5386,20007.0
1698920231612.9102,20002.0
1698920231633.2815,20002.0
1698920231653.6533,19992.0
1698920231674.025,19976.0
1698920231694.3965,19979.0
1698920231714.768,19977.0
1698920231735.14,19988.0
1698920231755.5117,19985.0
1698920231775.883,19988.0
1698920231796.2546,19985.0
1698920231816.6262,19993.0
1698920231836.9978,19988.0
1698920231857.3694,19993.0
1698920231877.741,19993.0
1698920231898.1123,19992.0
1698920231918.484,19990.0
1698920231938.8557,19990.0
1698920231959.2273,20001.0
1698920231979.5989,19991.0
1698920231999.9705,19994.0
1698920232020.342,20000.0
1698920232040.7136,19993.0
1698920232061.0852,19996.0
1698920232081.4568,19994.0
1698920232101.8284,19990.0
1698920232122.2,19994.0
1698920232142.5715,19995.0
1698920232162.943,19988.0
1698920232183.3147,19996.0
1698920232203.6863,19993.0
1698920232224.058,19995.0
1698920232244.4294,19992.0
1698920232264.801,19992.0
1698920232285.1726,19991.0
1698920232305.5444,19993.0
1698920232325.916,19994.0
1698920232346.2876,19989.0
1698920232366.6592,19990.0
1698920232387.0308,19992.0
1698920232407.4023,19988.0
1698920232427.774,19983.0
1698920232448.1455,19983.0
1698920232468.517,19984.0
1698920232488.889,19983.0
1698920232509.2605,19983.0
1698920232529.6318,19984.0
1698920232550.0034,19987.0
1698920232570.375,19983.0
1698920232590.7466,19988.0
1698920232611.1182,19988.0
1698920232631.4895,19993.0
1698920232651.861,19998.0
1698920232672.233,19995.0
1698920232692.6045,20006.0
1698920232712.976,20003.0
1698920232733.3477,20008.0
1698920232753.7192,20014.0
1698920232774.0908,20018.0
1698920232794.4624,20020.0
1698920232814.834,20024.0
1698920232835.2056,20023.0
1698920232855.5774,20033.0
1698920232875.949,20032.0
1698920232896.3206,20034.0
1698920232916.692,20035.0
1698920232937.0637,20033.0
1698920232957.4353,20032.0
1698920232977.807,20019.0
1698920232998.1785,20021.0
1698920233018.55,20038.0
1698920233038.9216,20046.0
1698920233059.2932,20046.0
1698920233079.6648,20054.0
1698920233100.0364,20051.0
1698920233120.408,20053.0
1698920233140.7795,20062.0
1698920233161.1511,20060.0
1698920233181.5227,20062.0
1698920233201.8943,20065.0
1698920233222.266,20068.0
1698920233242.6377,20071.0
1698920233263.009,20074.0
1698920233283.3806,20071.0
1698920233303.7522,20063.0
1698920233324.1238,20062.0
1698920233344.4954,20056.0
1698920233364.867,20056.0
1698920233385.2383,20052.0
1698920233405.61,20052.0
1698920233425.982,20053.0
1698920233446.3535,20049.0
1698920233466.725,20045.0
1698920233487.0967,20044.0
1698920233507.4685,20042.0
1698920233527.8398,20043.0
1698920233548.2114,20044.0
1698920233568.583,20042.0
1698920233588.9546,20042.0
1698920233609.3262,20042.0
1698920233629.6978,20040.0
1698920233650.069,20041.0
1698920233670.441,20041.0
1698920233690.8125,20035.0
1698920233711.184,20039.0
1698920233731.5557,20047.0
1698920233751.9272,20046.0
1698920233772.2988,20040.0
1698920233792.6704,20044.0
1698920233813.042,20040.0
1698920233833.4136,20039.0
1698920233853.7852,20041.0
1698920233874.1567,20043.0
1698920233894.5283,20045.0
1698920233914.9,20042.0
1698920233935.2715,20042.0
1698920233955.643,20037.0
1698920233976.015,20042.0
1698920233996.3865,20039.0
1698920234016.758,20040.0
1698920234037.1296,20037.0
1698920234057.5012,20038.0
1698920234077.8728,20036.0
1698920234098.2444,20043.0
1698920234118.616,20042.0
1698920234138.9875,20040.0
1698920234159.3591,20038.0
1698920234179.7307,20038.0
1698920234200.1023,20038.0
1698920234220.474,20039.0
1698920234240.8457,20033.0
1698920234261.217,20012.0
1698920234281.5886,20017.0
1698920234301.9602,20022.0
1698920234322.3318,20020.0
1698920234342.7034,20026.0
1698920234363.075,20024.0
1698920234383.4463,20029.0
1698920234403.818,20026.0
1698920234424.1897,20026.0
1698920234444.5613,20024.0
1698920234464.9329,20026.0
1698920234485.3044,20029.0
1698920234505.676,20026.0
1698920234526.0476,20027.0
1698920234546.4194,20024.0
1698920234566.791,20030.0
1698920234587.1626,20026.0
1698920234607.5342,20020.0
1698920234627.9058,20020.0
1698920234648.277,20020.0
1698920234668.649,20017.0
1698920234689.0205,20017.0
1698920234709.392,20013.0
1698920234729.7637,20014.0
1698920234750.1353,20017.0
1698920234770.5068,20018.0
1698920234790.8784,20020.0
1698920234811.25,20015.0
1698920234831.6216,20010.0
1698920234851.9932,20014.0
1698920234872.3647,20011.0
1698920234892.7363,20018.0
1698920234913.108,20011.0
1698920234933.4795,20017.0
1698920234953.851,20017.0
1698920234974.223,20011.0
1698920234994.5942,20015.0
1698920235014.9658,20011.0
1698920235035.3374,20018.0
1698920235055.709,20018.0
1698920235076.0806,20012.0
1698920235096.4524,20013.0
1698920235116.824,20009.0
1698920235137.1956,20016.0
1698920235157.5671,20018.0
1698920235177.9387,20013.0
1698920235198.3103,20019.0
1698920235218.682,20019.0
1698920235239.0537,20030.0
1698920235259.425,20028.0
1698920235279.7966,20033.0
1698920235300.1682,20036.0
1698920235320.5398,20042.0
1698920235340.9114,20043.0
1698920235361.283,20047.0
1698920235381.6543,20051.0
1698920235402.026,20056.0
1698920235422.3977,20058.0
1698920235442.7693,20061.0
1698920235463.1409,20059.0
1698920235483.5125,20060.0
1698920235503.884,20059.0
1698920235524.2556,20043.0
1698920235544.6272,20044.0
1698920235564.9988,20041.0
1698920235585.3704,20057.0
1698920235605.742,20055.0
1698920235626.1135,20054.0
1698920235646.485,20054.0
1698920235666.857,20055.0
1698920235687.2285,20053.0
1698920235707.6,20053.0
1698920235727.9717,20061.0
1698920235748.3433,20054.0
1698920235768.7148,20060.0
1698920235789.0864,20055.0
1698920235809.458,20056.0
1698920235829.8296,20047.0
1698920235850.2012,20059.0
1698920235870.5728,20056.0
1698920235890.9443,20055.0
1698920235911.316,20056.0
1698920235931.6875,20060.0
1698920235952.059,20057.0
1698920235972.431,20056.0
1698920235992.8022,20056.0
1698920236013.1738,20056.0
1698920236033.5454,20055.0
1698920236053.917,20057.0
1698920236074.2886,20057.0
1698920236094.6602,20054.0
1698920236115.0315,20049.0
1698920236135.4033,20055.0
1698920236155.775,20054.0
1698920236176.1465,20051.0
1698920236196.518,20056.0
1698920236216.89,20055.0
1698920236237.2617,20052.0
1698920236257.633,20050.0
1698920236278.0046,20047.0
1698920236298.3762,20053.0
1698920236318.7478,20050.0
1698920236339.1194,20051.0
1698920236359.491,20041.0
1698920236379.8623,20041.0
1698920236400.234,20043.0
1698920236420.6057,20035.0
1698920236440.9773,20033.0
1698920236461.3489,20031.0
1698920236481.7205,20035.0
1698920236502.092,20035.0
1698920236522.4636,20033.0
1698920236542.8352,20027.0
1698920236563.2068,20034.0
1698920236583.5784,20023.0
1698920236603.95,20028.0
1698920236624.3215,20021.0
1698920236644.693,20025.0
1698920236665.0647,20026.0
1698920236685.4363,20025.0
1698920236705.808,20022.0
1698920236726.1794,20017.0
1698920236746.551,20026.0
1698920236766.9226,20012.0
1698920236787.2944,19998.0
1698920236807.666,20007.0
1698920236828.0376,20003.0
1698920236848.4092,20011.0
1698920236868.7808,20020.0
1698920236889.1523,20015.0
1698920236909.524,20021.0
1698920236929.8955,20015.0
1698920236950.267,20020.0
1698920236970.639,20023.0
1698920236991.0105,20017.0
1698920237011.3818,20020.0
1698920237031.7534,20024.0
1698920237052.125,20020.0
1698920237072.4966,20022.0
1698920237092.8682,20021.0
1698920237113.2395,20014.0
1698920237133.611,20021.0
1698920237153.983,20021.0
1698920237174.3545,20021.0
1698920237194.726,20022.0
1698920237215.0977,20023.0
1698920237235.4692,20022.0
1698920237255.8408,20024.0
1698920237276.2124,20027.0
1698920237296.584,20027.0
1698920237316.9556,20030.0
1698920237337.3274,20032.0
1698920237357.699,20036.0
1698920237378.0706,20040.0
1698920237398.442,20035.0
1698920237418.8137,20034.0
1698920237439.1853,20033.0
1698920237459.557,20029.0
1698920237479.9285,20026.0
1698920237500.3,20032.0
1698920237520.6716,20028.0
1698920237541.0432,20035.0
1698920237561.4148,20031.0
1698920237581.7864,20028.0
1698920237602.158,20028.0
1698920237622.5295,20024.0
1698920237642.9011,20028.0
1698920237663.2727,20026.0
1698920237683.6443,20031.0
1698920237704.016,20025.0
1698920237724.3877,20023.0
1698920237744.759,20034.0
1698920237765.1306,20031.0
1698920237785.5022,20033.0
1698920237805.8738,20037.0
1698920237826.2454,20039.0
1698920237846.617,20028.0
1698920237866.9883,20036.0
1698920237887.36,20040.0
1698920237907.732,20040.0
1698920237928.1035,20045.0
1698920237948.475,20049.0
1698920237968.8467,20052.0
1698920237989.2185,20047.0
1698920238009.5898,20053.0
1698920238029.9614,20062.0
1698920238050.333,20055.0
1698920238070.7046,20051.0
1698920238091.0762,20040.0
1698920238111.4478,20029.0
1698920238131.819,20054.0
1698920238152.191,20058.0
1698920238172.5625,20055.0
1698920238192.934,20064.0
1698920238213.3057,20073.0
1698920238233.6772,20074.0
1698920238254.0488,20080.0
1698920238274.4204,20085.0
1698920238294.792,20091.0
1698920238315.1636,20095.0
1698920238335.5352,20095.0
1698920238355.9067,20106.0
1698920238376.2783,20102.0
1698920238396.65,20105.0
1698920238417.0215,20108.0
1698920238437.393,20111.0
1698920238457.765,20109.0
1698920238478.1365,20113.0
1698920238498.508,20114.0
1698920238518.8796,20117.0
1698920238539.2512,20118.0
1698920238559.6228,20116.0
1698920238579.9944,20120.0
1698920238600.366,20126.0
1698920238620.7375,20121.0
1698920238641.1091,20127.0
1698920238661.4807,20125.0
1698920238681.8523,20130.0
1698920238702.224,20141.0
1698920238722.5957,20150.0
1698920238742.967,20149.0
1698920238763.3386,20157.0
1698920238783.7102,20165.0
1698920238804.0818,20175.0
1698920238824.4534,20187.0
1698920238844.825,20189.0
1698920238865.1963,20201.0
1698920238885.568,20199.0
1698920238905.9397,20207.0
1698920238926.3113,20219.0
1698920238946.6829,20219.0
1698920238967.0544,20231.0
1698920238987.426,20236.0
1698920239007.7976,20241.0
1698920239028.1694,20244.0
1698920239048.541,20248.0
1698920239068.9126,20252.0
1698920239089.2842,20259.0
1698920239109.6558,20261.0
1698920239130.027,20262.0
1698920239150.399,20265.0
1698920239170.7705,20265.0
1698920239191.142,20267.0
1698920239211.5137,20267.0
1698920239231.8853,20265.0
1698920239252.2568,20262.0
1698920239272.6284,20258.0
1698920239313.3716,20259.0
1698920239333.7432,20254.0
1698920239354.1147,20241.0
1698920239374.4863,20231.0
1698920239394.858,20225.0
1698920239415.2295,20237.0
1698920239435.601,20235.0
1698920239455.973,20232.0
1698920239476.3442,20228.0
1698920239496.7158,20229.0
1698920239517.0874,20230.0
1698920239537.459,20240.0
1698920239557.8306,20237.0
1698920239578.2024,20248.0
1698920239598.574,20247.0
1698920239618.9456,20248.0
1698920239639.3171,20252.0
1698920239659.6887,20258.0
1698920239680.0603,20261.0
1698920239700.432,20266.0
1698920239720.8037,20276.0
1698920239741.175,20287.0
1698920239761.5466,20298.0
1698920239781.9182,20313.0
1698920239802.2898,20329.0
1698920239822.6614,20338.0
1698920239843.033,20354.0
1698920239863.4043,20357.0
1698920239883.776,20368.0
1698920239904.1477,20374.0
1698920239924.5193,20388.0
1698920239944.8909,20396.0
1698920239965.2625,20398.0
1698920239985.634,20397.0
1698920240006.0056,20400.0
1698920240026.3772,20406.0
1698920240046.7488,20413.0
1698920240067.1204,20409.0
1698920240087.492,20416.0
1698920240107.8635,20415.0
1698920240128.235,20420.0
1698920240148.607,20413.0
1698920240168.9785,20411.0
1698920240189.35,20419.0
1698920240209.7217,20417.0
1698920240230.0933,20422.0
1698920240250.4648,20418.0
1698920240270.8364,20418.0
1698920240291.208,20419.0
1698920240311.5796,20419.0
1698920240331.9512,20420.0
1698920240352.3228,20418.0
1698920240372.6943,20416.0
1698920240393.066,20416.0
1698920240413.4375,20419.0
1698920240433.809,20413.0
1698920240454.181,20412.0
1698920240474.5522,20410.0
1698920240494.9238,20411.0
1698920240515.2954,20403.0
1698920240535.667,20411.0
1698920240556.0386,20403.0
1698920240576.4102,20398.0
1698920240596.7815,20397.0
1698920240617.1533,20393.0
1698920240637.525,20375.0
1698920240657.8965,20363.0
1698920240678.268,20357.0
1698920240698.64,20370.0
1698920240719.0117,20368.0
1698920240739.383,20366.0
1698920240759.7546,20367.0
1698920240780.1262,20369.0
1698920240800.4978,20365.0
1698920240820.8694,20368.0
1698920240841.241,20367.0
1698920240861.6123,20366.0
1698920240881.984,20360.0
1698920240902.3557,20362.0
1698920240922.7273,20358.0
1698920240943.0989,20359.0
1698920240963.4705,20345.0
1698920240983.842,20345.0
1698920241004.2136,20339.0
1698920241024.5852,20342.0
1698920241044.9568,20345.0
1698920241065.3284,20345.0
1698920241085.7,20334.0
1698920241106.0715,20343.0
1698920241126.443,20341.0
1698920241146.8147,20351.0
1698920241167.1863,20346.0
1698920241187.558,20346.0
1698920241207.9294,20347.0
1698920241228.301,20346.0
1698920241248.6726,20343.0
1698920241269.0444,20349.0
1698920241289.416,20349.0
1698920241309.7876,20340.0
1698920241330.1592,20335.0
1698920241350.5308,20349.0
1698920241370.9023,20389.0
1698920241391.274,20452.0
1698920241411.6455,20518.0
1698920241432.017,20595.0
1698920241452.389,20639.0
1698920241472.7605,20650.0
1698920241493.1318,20657.0
1698920241513.5034,20678.0
1698920241533.875,20737.0
1698920241554.2466,20812.0
1698920241574.6182,20916.0
1698920241594.9895,21041.0
1698920241615.361,21166.0
1698920241635.733,21306.0
1698920241656.1045,21426.0
1698920241676.476,21518.0
1698920241696.8477,21592.0
1698920241717.2192,21648.0
1698920241737.5908,21714.0
1698920241757.9624,21790.0
1698920241778.334,21881.0
1698920241798.7056,21986.0
1698920241819.0774,22091.0
1698920241839.449,22196.0
1698920241859.8206,22278.0
1698920241880.192,22336.0
1698920241900.5637,22374.0
1698920241920.9353,22406.0
1698920241941.307,22432.0
1698920241961.6785,22445.0
1698920241982.05,22462.0
1698920242002.4216,22481.0
1698920242022.7932,22486.0
1698920242043.1648,22494.0
1698920242063.5364,22498.0
1698920242083.908,22505.0
1698920242104.2795,22512.0
1698920242124.6511,22516.0
1698920242145.0227,22526.0
1698920242165.3943,22526.0
1698920242185.766,22534.0
1698920242206.1377,22528.0
1698920242226.509,22533.0
1698920242246.8806,22531.0
1698920242267.2522,22528.0
1698920242287.6238,22527.0
1698920242307.9954,22516.0
1698920242328.367,22514.0
1698920242348.7383,22508.0
1698920242369.11,22504.0
1698920242389.482,22501.0
1698920242409.8535,22495.0
1698920242430.225,22483.0
1698920242450.5967,22477.0
1698920242470.9685,22473.0
1698920242491.3398,22483.0
1698920242511.7114,22473.0
1698920242532.083,22475.0
1698920242552.4546,22467.0
1698920242572.8262,22472.0
1698920242593.1978,22473.0
1698920242613.569,22459.0
1698920242633.941,22460.0
1698920242654.3125,22453.0
1698920242674.684,22452.0
1698920242695.0557,22452.0
1698920242715.4272,22459.0
1698920242735.7988,22470.0
1698920242756.1704,22472.0
1698920242776.542,22485.0
1698920242796.9136,22490.0
1698920242817.2852,22488.0
1698920242837.6567,22496.0
1698920242858.0283,22498.0
1698920242878.4,22498.0
1698920242898.7715,22507.0
1698920242919.143,22506.0
1698920242939.515,22511.0
1698920242959.8865,22519.0
1698920242980.258,22520.0
1698920243000.6296,22530.0
1698920243021.0012,22538.0
1698920243041.3728,22544.0
1698920243061.7444,22559.0
1698920243082.116,22562.0
1698920243102.4875,22570.0
1698920243122.8591,22571.0
1698920243143.2307,22581.0
1698920243163.6023,22603.0
1698920243183.974,22634.0
1698920243204.3457,22663.0
1698920243224.717,22694.0
1698920243245.0886,22710.0
1698920243265.4602,22730.0
1698920243285.8318,22744.0
1698920243306.2034,22773.0
1698920243326.575,22780.0
1698920243346.9463,22796.0
1698920243367.318,22807.0
1698920243387.6897,22835.0
1698920243408.0613,22858.0
1698920243428.4329,22882.0
1698920243448.8044,22912.0
1698920243469.176,22947.0
1698920243489.5476,22972.0
1698920243509.9194,22987.0
1698920243530.291,22987.0
1698920243550.6626,22991.0
1698920243571.0342,22988.0
1698920243591.4058,22986.0
1698920243611.777,22980.0
1698920243632.149,22987.0
1698920243652.5205,22990.0
1698920243672.892,22999.0
1698920243693.2637,23005.0
1698920243713.6353,23012.0
1698920243734.0068,23032.0
1698920243754.3784,23039.0
1698920243774.75,23068.0
1698920243795.1216,23093.0
1698920243815.4932,23121.0
1698920243835.8647,23167.0
1698920243856.2363,23208.0
1698920243876.608,23242.0
1698920243896.9795,23278.0
1698920243917.351,23304.0
1698920243937.723,23317.0
1698920243958.0942,23312.0
1698920243978.4658,23293.0
1698920243998.8374,23277.0
1698920244019.209,23260.0
1698920244039.5806,23251.0
1698920244059.9524,23262.0
1698920244080.324,23278.0
1698920244100.6956,23282.0
1698920244121.0671,23302.0
1698920244141.4387,23312.0
1698920244161.8103,23312.0
1698920244182.182,23306.0
1698920244202.5537,23299.0
1698920244222.925,23279.0
1698920244243.2966,23270.0
1698920244263.6682,23264.0
1698920244284.0398,23254.0
1698920244304.4114,23252.0
1698920244324.783,23254.0
1698920244345.1543,23255.0
1698920244365.526,23250.0
1698920244385.8977,23254.0
1698920244406.2693,23256.0
1698920244426.6409,23260.0
1698920244447.0125,23252.0
1698920244467.384,23251.0
1698920244487.7556,23254.0
1698920244508.1272,23248.0
1698920244528.4988,23251.0
1698920244548.8704,23257.0
1698920244569.242,23262.0
1698920244589.6135,23261.0
1698920244609.985,23261.0
1698920244630.357,23262.0
1698920244650.7285,23270.0
1698920244671.1,23279.0
1698920244691.4717,23283.0
1698920244711.8433,23291.0
1698920244732.2148,23297.0
1698920244752.5864,23293.0
1698920244772.958,23285.0
1698920244793.3296,23274.0
1698920244813.7012,23265.0
1698920244834.0728,23264.0
1698920244854.4443,23259.0
1698920244874.816,23250.0
1698920244895.1875,23249.0
1698920244915.559,23243.0
1698920244935.931,23241.0
1698920244956.3022,23239.0
1698920244976.6738,23230.0
1698920244997.0454,23228.0
