timestamp,ppg
1698415574.0191543,21062.0
1698415574.0395682,21061.0
1698415574.0599818,21057.0
1698415574.0803955,21061.0
1698415574.100809,21057.0
1698415574.121223,21057.0
1698415574.1416364,21056.0
1698415574.16205,21059.0
1698415574.1824636,21055.0
1698415574.2028773,21058.0
1698415574.223291,21054.0
1698415574.2437046,21050.0
1698415574.2641182,21052.0
1698415574.2845316,21055.0
1698415574.3049455,21061.0
1698415574.325359,21056.0
1698415574.3457727,21056.0
1698415574.3661864,21055.0
1698415574.3866,21058.0
1698415574.4070137,21061.0
1698415574.4274273,21054.0
1698415574.447841,21058.0
1698415574.4682546,21059.0
1698415574.4886682,21058.0
1698415574.5090818,21051.0
1698415574.5294955,21050.0
1698415574.549909,21050.0
1698415574.5703228,21044.0
1698415574.5907364,21037.0
1698415574.6111498,21037.0
1698415574.6315637,21033.0
1698415574.6519773,21035.0
1698415574.672391,21036.0
1698415574.6928043,21039.0
1698415574.7132185,21037.0
1698415574.7336318,21038.0
1698415574.7540455,21042.0
1698415574.774459,21045.0
1698415574.7948728,21047.0
1698415574.8152864,21048.0
1698415574.8357,21052.0
1698415574.8561134,21052.0
1698415574.876527,21048.0
1698415574.896941,21056.0
1698415574.9173546,21055.0
1698415574.937768,21059.0
1698415574.9581819,21062.0
1698415574.9785957,21062.0
1698415574.9990091,21063.0
1698415575.0194225,21070.0
1698415575.0398364,21072.0
1698415575.06025,21070.0
1698415575.0806637,21070.0
1698415575.1010773,21070.0
1698415575.121491,21074.0
1698415575.1419044,21079.0
1698415575.1623182,21080.0
1698415575.1827319,21083.0
1698415575.2031455,21080.0
1698415575.2235591,21082.0
1698415575.243973,21082.0
1698415575.2643864,21080.0
1698415575.2848,21074.0
1698415575.3052137,21073.0
1698415575.325627,21072.0
1698415575.346041,21078.0
1698415575.3664546,21071.0
1698415575.3868682,21073.0
1698415575.4072814,21072.0
1698415575.4276955,21073.0
1698415575.4481091,21069.0
1698415575.4685228,21076.0
1698415575.4889362,21077.0
1698415575.50935,21084.0
1698415575.5297637,21081.0
1698415575.5501773,21090.0
1698415575.5705907,21085.0
1698415575.5910046,21088.0
1698415575.6114182,21092.0
1698415575.631832,21099.0
1698415575.6522453,21101.0
1698415575.6726592,21103.0
1698415575.6930728,21105.0
1698415575.7134864,21113.0
1698415575.7338998,21114.0
1698415575.7543137,21117.0
1698415575.7747273,21112.0
1698415575.795141,21120.0
1698415575.8155544,21122.0
1698415575.8359685,21124.0
1698415575.856382,21127.0
1698415575.8767953,21129.0
1698415575.897209,21132.0
1698415575.9176228,21133.0
1698415575.9380364,21137.0
1698415575.9584498,21133.0
1698415575.9788635,21135.0
1698415575.999277,21132.0
1698415576.019691,21126.0
1698415576.0401044,21109.0
1698415576.060518,21102.0
1698415576.080932,21094.0
1698415576.1013458,21091.0
1698415576.121759,21084.0
1698415576.1421726,21083.0
1698415576.1625865,21085.0
1698415576.183,21083.0
1698415576.2034135,21083.0
1698415576.2238274,21078.0
1698415576.244241,21078.0
1698415576.2646544,21081.0
1698415576.285068,21081.0
1698415576.305482,21077.0
1698415576.3258955,21086.0
1698415576.3463092,21084.0
1698415576.3667228,21088.0
1698415576.3871365,21086.0
1698415576.40755,21095.0
1698415576.4279637,21096.0
1698415576.4483771,21099.0
1698415576.468791,21098.0
1698415576.4892046,21102.0
1698415576.5096183,21105.0
1698415576.5300314,21108.0
1698415576.5504456,21108.0
1698415576.5708592,21108.0
1698415576.5912726,21108.0
1698415576.6116862,21109.0
1698415576.6321,21113.0
1698415576.6525137,21112.0
1698415576.6729271,21117.0
1698415576.6933408,21111.0
1698415576.7137547,21120.0
1698415576.7341683,21120.0
1698415576.7545817,21119.0
1698415576.7749953,21118.0
1698415576.7954092,21116.0
1698415576.8158228,21118.0
1698415576.8362362,21115.0
1698415576.8566499,21115.0
1698415576.8770638,21112.0
1698415576.8974774,21108.0
1698415576.9178908,21103.0
1698415576.9383044,21099.0
1698415576.9587185,21102.0
1698415576.979132,21102.0
1698415576.9995453,21103.0
1698415577.019959,21097.0
1698415577.0403728,21087.0
1698415577.0607865,21085.0
1698415577.0812,21088.0
1698415577.1016135,21083.0
1698415577.1220272,21074.0
1698415577.142441,21074.0
1698415577.1628544,21068.0
1698415577.183268,21059.0
1698415577.203682,21061.0
1698415577.2240958,21055.0
1698415577.244509,21052.0
1698415577.2649226,21052.0
1698415577.2853365,21057.0
1698415577.30575,21062.0
1698415577.3261635,21067.0
1698415577.3465774,21073.0
1698415577.366991,21086.0
1698415577.3874042,21092.0
1698415577.407818,21098.0
1698415577.428232,21109.0
1698415577.4486456,21105.0
1698415577.469059,21101.0
1698415577.4894729,21097.0
1698415577.5098865,21096.0
1698415577.5303001,21096.0
1698415577.5507135,21105.0
1698415577.5711272,21112.0
1698415577.591541,21126.0
1698415577.6119547,21130.0
1698415577.632368,21143.0
1698415577.6527815,21148.0
1698415577.6731956,21159.0
1698415577.6936092,21162.0
1698415577.7140226,21166.0
1698415577.7344363,21170.0
1698415577.7548501,21175.0
1698415577.7752638,21170.0
1698415577.7956772,21166.0
1698415577.8160908,21166.0
1698415577.8365047,21161.0
1698415577.856918,21155.0
1698415577.8773317,21153.0
1698415577.8977454,21148.0
1698415577.9181592,21151.0
1698415577.9385726,21157.0
1698415577.9589863,21161.0
1698415577.9794,21159.0
1698415577.9998138,21158.0
1698415578.0202272,21155.0
1698415578.0406408,21150.0
1698415578.0610545,21147.0
1698415578.0814686,21143.0
1698415578.1018817,21136.0
1698415578.1222954,21132.0
1698415578.142709,21124.0
1698415578.163123,21118.0
1698415578.1835363,21109.0
1698415578.20395,21109.0
1698415578.2243636,21105.0
1698415578.2447772,21093.0
1698415578.2651908,21096.0
1698415578.2856045,21098.0
1698415578.306018,21101.0
1698415578.326432,21099.0
1698415578.3468456,21097.0
1698415578.367259,21098.0
1698415578.3876727,21100.0
1698415578.4080865,21094.0
1698415578.4285,21099.0
1698415578.4489136,21091.0
1698415578.4693274,21098.0
1698415578.4897408,21098.0
1698415578.5101542,21099.0
1698415578.5305681,21103.0
1698415578.550982,21108.0
1698415578.5713954,21115.0
1698415578.591809,21113.0
1698415578.612223,21118.0
1698415578.6326365,21118.0
1698415578.65305,21121.0
1698415578.6734636,21122.0
1698415578.6938772,21123.0
1698415578.714291,21130.0
1698415578.7347045,21126.0
1698415578.7551181,21131.0
1698415578.7755315,21123.0
1698415578.7959456,21127.0
1698415578.816359,21132.0
1698415578.8367727,21133.0
1698415578.8571863,21145.0
1698415578.8776002,21152.0
1698415578.8980136,21175.0
1698415578.9184272,21192.0
1698415578.9388409,21204.0
1698415578.9592547,21232.0
1698415578.9796681,21250.0
1698415579.0000818,21263.0
1698415579.0204954,21275.0
1698415579.0409093,21282.0
1698415579.0613227,21296.0
1698415579.0817363,21306.0
1698415579.10215,21318.0
1698415579.1225638,21325.0
1698415579.1429772,21338.0
1698415579.1633909,21344.0
1698415579.1838045,21349.0
1698415579.2042184,21359.0
1698415579.2246318,21355.0
1698415579.2450454,21366.0
1698415579.265459,21368.0
1698415579.2858727,21379.0
1698415579.3062863,21387.0
1698415579.3267,21392.0
1698415579.3471136,21398.0
1698415579.367527,21402.0
1698415579.387941,21409.0
1698415579.4083545,21415.0
1698415579.4287682,21415.0
1698415579.4491818,21420.0
1698415579.4695957,21424.0
1698415579.490009,21430.0
1698415579.5104227,21439.0
1698415579.5308363,21441.0
1698415579.55125,21448.0
1698415579.5716636,21446.0
1698415579.5920775,21447.0
1698415579.612491,21450.0
1698415579.6329043,21449.0
1698415579.6533182,21451.0
1698415579.673732,21458.0
1698415579.6941454,21465.0
1698415579.714559,21464.0
1698415579.734973,21472.0
1698415579.7553866,21477.0
1698415579.7758,21479.0
1698415579.7962136,21481.0
1698415579.8166273,21490.0
1698415579.837041,21490.0
1698415579.8574545,21488.0
1698415579.8778682,21489.0
1698415579.8982816,21482.0
1698415579.9186954,21481.0
1698415579.939109,21480.0
1698415579.9595227,21476.0
1698415579.9799364,21471.0
1698415580.00035,21474.0
1698415580.0207636,21474.0
1698415580.0411773,21475.0
1698415580.061591,21474.0
1698415580.0820045,21473.0
1698415580.1024182,21475.0
1698415580.1228318,21479.0
1698415580.1432455,21471.0
1698415580.163659,21471.0
1698415580.1840727,21473.0
1698415580.2044864,21471.0
1698415580.2249,21465.0
1698415580.2453136,21469.0
1698415580.2657273,21459.0
1698415580.286141,21456.0
1698415580.3065546,21455.0
1698415580.3269684,21456.0
1698415580.3473818,21453.0
1698415580.3677955,21449.0
1698415580.3882089,21447.0
1698415580.4086227,21453.0
1698415580.4290364,21445.0
1698415580.44945,21447.0
1698415580.4698634,21439.0
1698415580.490277,21439.0
1698415580.510691,21431.0
1698415580.5311046,21432.0
1698415580.551518,21424.0
1698415580.5719318,21430.0
1698415580.5923457,21420.0
1698415580.612759,21412.0
1698415580.6331725,21402.0
1698415580.6535864,21392.0
1698415580.674,21389.0
1698415580.6944137,21373.0
1698415580.7148273,21371.0
1698415580.735241,21358.0
1698415580.7556543,21350.0
1698415580.7760682,21341.0
1698415580.7964818,21337.0
1698415580.8168955,21330.0
1698415580.8373091,21317.0
1698415580.857723,21315.0
1698415580.8781364,21299.0
1698415580.89855,21298.0
1698415580.9189637,21286.0
1698415580.9393773,21280.0
1698415580.959791,21266.0
1698415580.9802046,21261.0
1698415581.0006182,21252.0
1698415581.0210314,21241.0
1698415581.0414455,21230.0
1698415581.0618591,21222.0
1698415581.0822728,21217.0
1698415581.1026862,21211.0
1698415581.1231,21199.0
1698415581.1435137,21199.0
1698415581.1639273,21196.0
1698415581.1843407,21197.0
1698415581.2047546,21196.0
1698415581.2251682,21191.0
1698415581.2455819,21188.0
1698415581.2659953,21192.0
1698415581.2864091,21183.0
1698415581.3068228,21185.0
1698415581.3272364,21185.0
1698415581.3476498,21189.0
1698415581.3680637,21184.0
1698415581.3884773,21181.0
1698415581.408891,21179.0
1698415581.4293044,21168.0
1698415581.4497185,21158.0
1698415581.4701319,21150.0
1698415581.4905455,21142.0
1698415581.510959,21132.0
1698415581.5313728,21132.0
1698415581.5517864,21122.0
1698415581.5722,21114.0
1698415581.5926135,21108.0
1698415581.613027,21112.0
1698415581.633441,21098.0
1698415581.6538546,21093.0
1698415581.674268,21087.0
1698415581.694682,21080.0
1698415581.7150958,21072.0
1698415581.735509,21071.0
1698415581.7559226,21069.0
1698415581.7763364,21081.0
1698415581.79675,21081.0
1698415581.8171635,21089.0
1698415581.8375773,21093.0
1698415581.857991,21101.0
1698415581.8784044,21111.0
1698415581.898818,21117.0
1698415581.919232,21124.0
1698415581.9396455,21127.0
1698415581.9600592,21137.0
1698415581.9804728,21138.0
1698415582.0008864,21143.0
1698415582.0213,21143.0
1698415582.0417137,21145.0
1698415582.062127,21139.0
1698415582.082541,21130.0
1698415582.1029546,21139.0
1698415582.1233683,21133.0
1698415582.1437814,21133.0
1698415582.1641955,21131.0
1698415582.1846092,21129.0
1698415582.2050228,21120.0
1698415582.2254362,21111.0
1698415582.24585,21111.0
1698415582.2662637,21102.0
1698415582.2866774,21104.0
1698415582.3070908,21099.0
1698415582.3275046,21100.0
1698415582.3479183,21089.0
1698415582.3683317,21091.0
1698415582.3887453,21090.0
1698415582.4091592,21086.0
1698415582.4295728,21092.0
1698415582.4499862,21084.0
1698415582.4703999,21085.0
1698415582.4908137,21087.0
1698415582.5112274,21090.0
1698415582.5316408,21091.0
1698415582.5520544,21095.0
1698415582.5724685,21087.0
1698415582.592882,21088.0
1698415582.6132953,21094.0
1698415582.633709,21087.0
1698415582.6541228,21088.0
1698415582.6745365,21081.0
1698415582.6949499,21071.0
1698415582.7153635,21070.0
1698415582.7357771,21058.0
1698415582.756191,21059.0
1698415582.7766044,21048.0
1698415582.797018,21049.0
1698415582.817432,21042.0
1698415582.8378458,21039.0
1698415582.858259,21034.0
1698415582.8786726,21034.0
1698415582.8990865,21029.0
1698415582.9195,21028.0
1698415582.9399135,21020.0
1698415582.9603274,21015.0
1698415582.980741,21011.0
1698415583.0011542,21004.0
1698415583.021568,21005.0
1698415583.041982,20996.0
1698415583.0623956,21003.0
1698415583.082809,20995.0
1698415583.1032228,20996.0
1698415583.1236365,20986.0
1698415583.1440501,20992.0
1698415583.1644635,20993.0
1698415583.1848772,20985.0
1698415583.205291,20991.0
1698415583.2257047,20988.0
1698415583.246118,20988.0
1698415583.2665315,20986.0
1698415583.2869456,20992.0
1698415583.3073592,20992.0
1698415583.3277726,20991.0
1698415583.3481863,20990.0
1698415583.3686001,20987.0
1698415583.3890138,20995.0
1698415583.4094272,20994.0
1698415583.4298408,21001.0
1698415583.4502547,20998.0
1698415583.4706683,20998.0
1698415583.4910817,20995.0
1698415583.5114954,20994.0
1698415583.5319092,20994.0
1698415583.5523229,20985.0
1698415583.5727363,20989.0
1698415583.59315,20977.0
1698415583.6135638,20971.0
1698415583.6339774,20952.0
1698415583.6543908,20947.0
1698415583.6748044,20935.0
1698415583.6952186,20929.0
1698415583.7156317,20915.0
1698415583.7360454,20906.0
1698415583.756459,20894.0
1698415583.7768729,20891.0
1698415583.7972863,20874.0
1698415583.8177,20874.0
1698415583.8381135,20865.0
1698415583.8585272,20859.0
1698415583.8789408,20852.0
1698415583.8993545,20844.0
1698415583.919768,20838.0
1698415583.940182,20835.0
1698415583.9605956,20828.0
1698415583.981009,20826.0
1698415584.0014226,20821.0
1698415584.0218365,20817.0
1698415584.04225,20815.0
1698415584.0626636,20815.0
1698415584.0830774,20817.0
1698415584.103491,20812.0
1698415584.1239042,20814.0
1698415584.144318,20813.0
1698415584.164732,20820.0
1698415584.1851456,20826.0
1698415584.205559,20825.0
1698415584.225973,20829.0
1698415584.2463865,20826.0
1698415584.2668002,20821.0
1698415584.2872136,20814.0
1698415584.3076272,20808.0
1698415584.328041,20814.0
1698415584.3484545,20803.0
1698415584.368868,20804.0
1698415584.3892815,20804.0
1698415584.4096956,20809.0
1698415584.430109,20794.0
1698415584.4505227,20795.0
1698415584.4709363,20797.0
1698415584.4913502,20790.0
1698415584.5117636,20788.0
1698415584.5321772,20794.0
1698415584.5525908,20782.0
1698415584.5730047,20772.0
1698415584.5934181,20772.0
1698415584.6138318,20762.0
1698415584.6342454,20758.0
1698415584.6546593,20753.0
1698415584.6750727,20747.0
1698415584.6954863,20741.0
1698415584.7159,20744.0
1698415584.7363138,20741.0
1698415584.7567272,20733.0
1698415584.7771409,20730.0
1698415584.7975545,20732.0
1698415584.8179686,20725.0
1698415584.8383818,20731.0
1698415584.8587954,20729.0
1698415584.879209,20722.0
1698415584.899623,20726.0
1698415584.9200363,20716.0
1698415584.94045,20712.0
1698415584.9608636,20709.0
1698415584.981277,20697.0
1698415585.0016909,20698.0
1698415585.0221045,20692.0
1698415585.0425181,20696.0
1698415585.0629318,20685.0
1698415585.0833457,20691.0
1698415585.103759,20691.0
1698415585.1241727,20685.0
1698415585.1445863,20684.0
1698415585.165,20684.0
1698415585.1854136,20683.0
1698415585.2058275,20681.0
1698415585.2262409,20677.0
1698415585.2466543,20682.0
1698415585.2670681,20686.0
1698415585.287482,20683.0
1698415585.3078954,20688.0
1698415585.328309,20683.0
1698415585.348723,20692.0
1698415585.3691366,20689.0
1698415585.38955,20685.0
1698415585.4099636,20687.0
1698415585.4303772,20690.0
1698415585.4507911,20690.0
1698415585.4712045,20693.0
1698415585.4916182,20701.0
1698415585.5120316,20695.0
1698415585.5324457,20695.0
1698415585.552859,20695.0
1698415585.5732727,20685.0
1698415585.5936863,20694.0
1698415585.6141,20683.0
1698415585.6345136,20674.0
1698415585.6549273,20664.0
1698415585.675341,20649.0
1698415585.6957545,20644.0
1698415585.7161682,20637.0
1698415585.7365818,20630.0
1698415585.7569954,20628.0
1698415585.777409,20626.0
1698415585.7978227,20616.0
1698415585.8182364,20609.0
1698415585.83865,20610.0
1698415585.8590636,20603.0
1698415585.8794773,20591.0
1698415585.899891,20596.0
1698415585.9203045,20596.0
1698415585.9407184,20589.0
1698415585.9611318,20588.0
1698415585.9815454,20586.0
1698415586.001959,20588.0
1698415586.0223727,20588.0
1698415586.0427864,20594.0
1698415586.0632,20592.0
1698415586.0836136,20594.0
1698415586.104027,20592.0
1698415586.124441,20584.0
1698415586.1448545,20590.0
1698415586.1652682,20594.0
1698415586.1856818,20588.0
1698415586.2060957,20591.0
1698415586.226509,20595.0
1698415586.2469225,20592.0
1698415586.2673364,20593.0
1698415586.28775,20594.0
1698415586.3081636,20600.0
1698415586.3285773,20601.0
1698415586.348991,20602.0
1698415586.3694043,20596.0
1698415586.3898182,20591.0
1698415586.4102318,20588.0
1698415586.4306455,20578.0
1698415586.451059,20577.0
1698415586.471473,20576.0
1698415586.4918864,20581.0
1698415586.5123,20586.0
1698415586.5327137,20589.0
1698415586.5531273,20587.0
1698415586.573541,20593.0
1698415586.5939546,20594.0
1698415586.6143682,20586.0
1698415586.6347816,20593.0
1698415586.6551955,20586.0
1698415586.675609,20584.0
1698415586.6960227,20582.0
1698415586.7164364,20581.0
1698415586.73685,20584.0
1698415586.7572637,20582.0
1698415586.7776773,20578.0
1698415586.798091,20586.0
1698415586.8185046,20584.0
1698415586.8389182,20577.0
1698415586.8593318,20577.0
1698415586.8797452,20579.0
1698415586.9001591,20576.0
1698415586.9205728,20581.0
1698415586.9409864,20583.0
1698415586.9613998,20582.0
1698415586.9818137,20591.0
1698415587.0022273,20589.0
1698415587.022641,20593.0
1698415587.0430543,20595.0
1698415587.0634685,20599.0
1698415587.0838819,20596.0
1698415587.1042955,20598.0
1698415587.124709,20596.0
1698415587.1451228,20596.0
1698415587.1655364,20592.0
1698415587.18595,20583.0
1698415587.2063634,20587.0
1698415587.226777,20583.0
1698415587.247191,20574.0
1698415587.2676046,20577.0
1698415587.288018,20577.0
1698415587.3084319,20578.0
1698415587.3288457,20574.0
1698415587.3492591,20575.0
1698415587.3696725,20575.0
1698415587.3900864,20574.0
1698415587.4105,20569.0
1698415587.4309137,20570.0
1698415587.4513273,20569.0
1698415587.471741,20563.0
1698415587.4921544,20561.0
1698415587.512568,20563.0
1698415587.5329819,20559.0
1698415587.5533955,20559.0
1698415587.5738091,20564.0
1698415587.5942228,20562.0
1698415587.6146364,20564.0
1698415587.63505,20570.0
1698415587.6554637,20572.0
1698415587.675877,20577.0
1698415587.696291,20579.0
1698415587.7167046,20582.0
1698415587.7371182,20587.0
1698415587.7575314,20593.0
1698415587.7779455,20591.0
1698415587.7983592,20596.0
1698415587.8187728,20610.0
1698415587.8391862,20610.0
1698415587.8596,20613.0
1698415587.8800137,20622.0
1698415587.9004273,20616.0
1698415587.9208407,20619.0
1698415587.9412546,20617.0
1698415587.9616683,20614.0
1698415587.982082,20617.0
1698415588.0024953,20619.0
1698415588.0229092,20617.0
1698415588.0433228,20616.0
1698415588.0637364,20622.0
1698415588.0841498,20629.0
1698415588.1045637,20625.0
1698415588.1249774,20628.0
1698415588.145391,20627.0
1698415588.1658044,20619.0
1698415588.1862185,20620.0
1698415588.206632,20623.0
1698415588.2270453,20620.0
1698415588.247459,20630.0
1698415588.2678728,20620.0
1698415588.2882864,20623.0
1698415588.3086998,20620.0
1698415588.3291135,20620.0
1698415588.3495271,20617.0
1698415588.369941,20612.0
1698415588.3903544,20615.0
1698415588.410768,20622.0
1698415588.431182,20617.0
1698415588.4515958,20618.0
1698415588.472009,20622.0
1698415588.4924226,20623.0
1698415588.5128365,20619.0
1698415588.53325,20626.0
1698415588.5536635,20629.0
1698415588.5740774,20621.0
1698415588.594491,20623.0
1698415588.6149044,20619.0
1698415588.635318,20614.0
1698415588.655732,20604.0
1698415588.6761456,20597.0
1698415588.6965592,20592.0
1698415588.7169728,20591.0
1698415588.7373865,20583.0
1698415588.7578,20578.0
1698415588.7782137,20569.0
1698415588.7986271,20572.0
1698415588.819041,20572.0
1698415588.8394547,20571.0
1698415588.859868,20575.0
1698415588.8802814,20576.0
1698415588.9006956,20577.0
1698415588.9211092,20577.0
1698415588.9415226,20577.0
1698415588.9619362,20582.0
1698415588.98235,20589.0
1698415589.0027637,20601.0
1698415589.0231771,20610.0
1698415589.0435908,20622.0
1698415589.0640047,20633.0
1698415589.0844183,20638.0
1698415589.1048317,20649.0
1698415589.1252453,20664.0
1698415589.1456592,20668.0
1698415589.1660728,20674.0
1698415589.1864862,20686.0
1698415589.2069,20695.0
1698415589.2273138,20704.0
1698415589.2477274,20701.0
1698415589.2681408,20706.0
1698415589.2885544,20718.0
1698415589.3089685,20716.0
1698415589.329382,20720.0
1698415589.3497953,20721.0
1698415589.370209,20716.0
1698415589.3906229,20718.0
1698415589.4110365,20705.0
1698415589.43145,20706.0
1698415589.4518635,20700.0
1698415589.4722772,20693.0
1698415589.4926908,20691.0
1698415589.5131044,20687.0
1698415589.533518,20690.0
1698415589.553932,20690.0
1698415589.5743456,20687.0
1698415589.594759,20689.0
1698415589.6151726,20690.0
1698415589.6355865,20690.0
1698415589.656,20688.0
1698415589.6764135,20692.0
1698415589.6968274,20688.0
1698415589.717241,20691.0
1698415589.7376542,20692.0
1698415589.758068,20691.0
1698415589.778482,20690.0
1698415589.7988956,20685.0
1698415589.819309,20685.0
1698415589.8397229,20679.0
1698415589.8601365,20678.0
1698415589.8805501,20674.0
1698415589.9009635,20667.0
1698415589.9213772,20663.0
1698415589.941791,20651.0
1698415589.9622047,20655.0
1698415589.982618,20652.0
1698415590.0030315,20649.0
1698415590.0234456,20651.0
1698415590.0438592,20649.0
1698415590.0642726,20643.0
1698415590.0846863,20641.0
1698415590.1051002,20642.0
1698415590.1255136,20631.0
1698415590.1459272,20633.0
1698415590.1663408,20627.0
1698415590.1867547,20618.0
1698415590.207168,20617.0
1698415590.2275817,20606.0
1698415590.2479954,20606.0
1698415590.2684093,20599.0
1698415590.2888227,20598.0
1698415590.3092363,20596.0
1698415590.32965,20595.0
1698415590.3500638,20597.0
1698415590.3704772,20596.0
1698415590.3908908,20604.0
1698415590.4113045,20605.0
1698415590.4317186,20600.0
1698415590.4521317,20607.0
1698415590.4725454,20604.0
1698415590.492959,20611.0
1698415590.513373,20609.0
1698415590.5337863,20616.0
1698415590.5542,20622.0
1698415590.5746136,20626.0
1698415590.5950272,20636.0
1698415590.6154408,20639.0
1698415590.6358545,20652.0
1698415590.6562681,20668.0
1698415590.676682,20684.0
1698415590.6970956,20691.0
1698415590.717509,20703.0
1698415590.7379227,20716.0
1698415590.7583365,20724.0
1698415590.77875,20742.0
1698415590.7991636,20727.0
1698415590.8195775,20745.0
1698415590.8399909,20749.0
1698415590.8604043,20769.0
1698415590.8808181,20778.0
1698415590.901232,20772.0
1698415590.9216454,20790.0
1698415590.942059,20788.0
1698415590.962473,20786.0
1698415590.9828866,20778.0
1698415591.0033,20779.0
1698415591.0237136,20779.0
1698415591.0441272,20772.0
1698415591.064541,20774.0
1698415591.0849545,20762.0
1698415591.1053681,20764.0
1698415591.1257815,20755.0
1698415591.1461957,20747.0
1698415591.166609,20747.0
1698415591.1870227,20750.0
1698415591.2074363,20754.0
1698415591.2278502,20752.0
1698415591.2482636,20754.0
1698415591.2686772,20747.0
1698415591.2890909,20744.0
1698415591.3095047,20746.0
1698415591.3299181,20738.0
1698415591.3503318,20743.0
1698415591.3707454,20737.0
1698415591.3911593,20735.0
1698415591.4115727,20732.0
1698415591.4319863,20732.0
1698415591.4524,20726.0
1698415591.4728136,20725.0
1698415591.4932272,20729.0
1698415591.5136409,20726.0
1698415591.5340545,20731.0
1698415591.5544684,20724.0
1698415591.5748818,20719.0
1698415591.5952954,20712.0
1698415591.615709,20712.0
1698415591.6361227,20707.0
1698415591.6565363,20702.0
1698415591.67695,20699.0
1698415591.6973636,20705.0
1698415591.717777,20704.0
1698415591.738191,20709.0
1698415591.7586045,20717.0
1698415591.7790182,20719.0
1698415591.7994318,20723.0
1698415591.8198457,20724.0
1698415591.840259,20724.0
1698415591.8606727,20725.0
1698415591.8810863,20728.0
1698415591.9015,20733.0
1698415591.9219136,20731.0
1698415591.9423275,20743.0
1698415591.962741,20747.0
1698415591.9831543,20743.0
1698415592.0035682,20740.0
1698415592.023982,20740.0
1698415592.0443954,20735.0
1698415592.064809,20730.0
1698415592.085223,20726.0
1698415592.1056364,20730.0
1698415592.12605,20724.0
1698415592.1464636,20721.0
1698415592.1668773,20722.0
1698415592.187291,20723.0
1698415592.2077045,20723.0
1698415592.2281182,20719.0
1698415592.2485316,20719.0
1698415592.2689455,20719.0
1698415592.289359,20721.0
1698415592.3097727,20718.0
1698415592.3301864,20723.0
1698415592.3506,20720.0
1698415592.3710136,20719.0
1698415592.3914273,20720.0
1698415592.411841,20714.0
1698415592.4322546,20716.0
1698415592.4526682,20709.0
1698415592.4730818,20713.0
1698415592.4934955,20704.0
1698415592.513909,20705.0
1698415592.5343227,20700.0
1698415592.5547364,20700.0
1698415592.57515,20689.0
1698415592.5955637,20687.0
1698415592.6159773,20677.0
1698415592.636391,20672.0
1698415592.6568046,20659.0
1698415592.6772184,20646.0
1698415592.6976318,20641.0
1698415592.7180455,20627.0
1698415592.7384589,20621.0
1698415592.7588727,20602.0
1698415592.7792864,20604.0
1698415592.7997,20594.0
1698415592.8201134,20594.0
1698415592.840527,20588.0
1698415592.860941,20586.0
1698415592.8813546,20573.0
1698415592.901768,20567.0
1698415592.9221818,20557.0
1698415592.9425957,20554.0
1698415592.963009,20542.0
1698415592.9834225,20538.0
1698415593.0038364,20537.0
1698415593.02425,20533.0
1698415593.0446637,20525.0
1698415593.0650773,20525.0
1698415593.085491,20519.0
1698415593.1059043,20514.0
1698415593.1263182,20505.0
1698415593.1467319,20502.0
1698415593.1671455,20499.0
1698415593.1875591,20502.0
1698415593.207973,20499.0
1698415593.2283864,20507.0
1698415593.2488,20509.0
1698415593.2692137,20511.0
1698415593.2896273,20505.0
1698415593.310041,20511.0
1698415593.3304546,20509.0
1698415593.3508682,20512.0
1698415593.3712814,20512.0
1698415593.3916955,20502.0
1698415593.4121091,20496.0
1698415593.4325228,20493.0
1698415593.4529362,20487.0
1698415593.47335,20486.0
1698415593.4937637,20484.0
1698415593.5141773,20477.0
1698415593.5345907,20477.0
1698415593.5550046,20480.0
1698415593.5754182,20478.0
1698415593.5958319,20476.0
1698415593.6162453,20474.0
1698415593.6366591,20477.0
1698415593.6570728,20476.0
1698415593.6774864,20471.0
1698415593.6978998,20478.0
1698415593.7183137,20473.0
1698415593.7387273,20474.0
1698415593.759141,20469.0
1698415593.7795544,20462.0
1698415593.7999685,20462.0
1698415593.8203819,20461.0
1698415593.8407955,20460.0
1698415593.861209,20453.0
1698415593.8816228,20450.0
1698415593.9020364,20443.0
1698415593.92245,20441.0
1698415593.9428635,20431.0
1698415593.963277,20427.0
1698415593.983691,20433.0
1698415594.0041044,20430.0
1698415594.024518,20428.0
1698415594.044932,20431.0
1698415594.0653458,20428.0
1698415594.085759,20422.0
1698415594.1061726,20416.0
1698415594.1265864,20416.0
1698415594.147,20411.0
1698415594.1674135,20407.0
1698415594.1878273,20397.0
1698415594.208241,20388.0
1698415594.2286544,20390.0
1698415594.249068,20376.0
1698415594.269482,20378.0
1698415594.2898955,20375.0
1698415594.3103092,20370.0
1698415594.3307228,20368.0
1698415594.3511364,20368.0
1698415594.37155,20366.0
1698415594.3919637,20369.0
1698415594.412377,20364.0
1698415594.432791,20360.0
1698415594.4532046,20359.0
1698415594.4736183,20361.0
1698415594.4940314,20366.0
1698415594.5144455,20369.0
1698415594.5348592,20369.0
1698415594.5552728,20366.0
1698415594.5756862,20360.0
1698415594.5961,20353.0
1698415594.6165137,20346.0
1698415594.6369271,20349.0
1698415594.6573408,20349.0
1698415594.6777546,20342.0
1698415594.6981683,20344.0
1698415594.7185817,20343.0
1698415594.7389953,20342.0
1698415594.7594092,20351.0
1698415594.7798228,20349.0
1698415594.8002362,20352.0
1698415594.8206499,20367.0
1698415594.8410637,20366.0
1698415594.8614774,20369.0
1698415594.8818908,20376.0
1698415594.9023044,20381.0
1698415594.9227185,20388.0
1698415594.943132,20386.0
1698415594.9635453,20396.0
1698415594.983959,20397.0
1698415595.0043728,20405.0
1698415595.0247865,20414.0
1698415595.0451999,20417.0
1698415595.0656135,20423.0
1698415595.0860271,20422.0
1698415595.106441,20426.0
1698415595.1268544,20429.0
1698415595.147268,20439.0
1698415595.167682,20438.0
1698415595.1880958,20444.0
1698415595.208509,20448.0
1698415595.2289226,20456.0
1698415595.2493365,20459.0
1698415595.26975,20457.0
1698415595.2901635,20459.0
1698415595.3105774,20460.0
1698415595.330991,20457.0
1698415595.3514042,20456.0
1698415595.371818,20455.0
1698415595.392232,20457.0
1698415595.4126456,20457.0
1698415595.433059,20459.0
1698415595.4534729,20460.0
1698415595.4738865,20466.0
1698415595.4943001,20463.0
1698415595.5147135,20468.0
1698415595.5351272,20471.0
1698415595.555541,20469.0
1698415595.5759547,20477.0
1698415595.596368,20480.0
1698415595.6167815,20481.0
1698415595.6371956,20485.0
1698415595.6576092,20484.0
1698415595.6780226,20493.0
1698415595.6984363,20491.0
1698415595.7188501,20485.0
1698415595.7392638,20486.0
1698415595.7596772,20478.0
1698415595.7800908,20470.0
1698415595.8005047,20463.0
1698415595.8209183,20462.0
1698415595.8413317,20447.0
1698415595.8617454,20447.0
1698415595.8821592,20433.0
1698415595.9025729,20428.0
1698415595.9229863,20432.0
1698415595.9434,20424.0
1698415595.9638138,20422.0
1698415595.9842272,20415.0
1698415596.0046408,20415.0
1698415596.0250545,20418.0
1698415596.0454686,20409.0
1698415596.0658817,20406.0
1698415596.0862954,20402.0
1698415596.106709,20404.0
1698415596.1271229,20400.0
1698415596.1475363,20398.0
1698415596.16795,20396.0
1698415596.1883636,20394.0
1698415596.2087772,20392.0
1698415596.2291908,20396.0
1698415596.2496045,20390.0
1698415596.270018,20391.0
1698415596.290432,20393.0
1698415596.3108456,20390.0
1698415596.331259,20393.0
1698415596.3516726,20396.0
1698415596.3720865,20402.0
1698415596.3925,20407.0
1698415596.4129136,20412.0
1698415596.4333274,20417.0
1698415596.453741,20424.0
1698415596.4741542,20434.0
1698415596.494568,20448.0
1698415596.514982,20461.0
1698415596.5353956,20480.0
1698415596.555809,20491.0
1698415596.576223,20506.0
1698415596.5966365,20508.0
1698415596.61705,20520.0
1698415596.6374636,20522.0
1698415596.6578772,20521.0
1698415596.678291,20526.0
1698415596.6987045,20529.0
1698415596.719118,20529.0
1698415596.7395315,20528.0
1698415596.7599456,20530.0
1698415596.780359,20532.0
1698415596.8007727,20536.0
1698415596.8211863,20541.0
1698415596.8416002,20536.0
1698415596.8620136,20536.0
1698415596.8824272,20533.0
1698415596.9028409,20525.0
1698415596.9232547,20527.0
1698415596.9436681,20525.0
1698415596.9640818,20530.0
1698415596.9844954,20527.0
1698415597.0049093,20524.0
1698415597.0253227,20521.0
1698415597.0457363,20521.0
1698415597.06615,20519.0
1698415597.0865638,20523.0
1698415597.1069772,20521.0
1698415597.1273909,20532.0
1698415597.1478045,20529.0
1698415597.1682186,20534.0
1698415597.1886318,20534.0
1698415597.2090454,20541.0
1698415597.229459,20549.0
1698415597.2498727,20552.0
1698415597.2702863,20554.0
1698415597.2907,20562.0
1698415597.3111136,20576.0
1698415597.331527,20578.0
1698415597.3519409,20588.0
1698415597.3723545,20587.0
1698415597.3927681,20593.0
1698415597.4131818,20597.0
1698415597.4335957,20600.0
1698415597.454009,20599.0
1698415597.4744227,20605.0
1698415597.4948363,20613.0
1698415597.51525,20612.0
1698415597.5356636,20624.0
1698415597.5560775,20632.0
1698415597.5764909,20639.0
1698415597.5969043,20651.0
1698415597.6173182,20656.0
1698415597.637732,20665.0
1698415597.6581454,20660.0
1698415597.678559,20667.0
1698415597.698973,20676.0
1698415597.7193866,20674.0
1698415597.7398,20674.0
1698415597.7602136,20683.0
1698415597.7806273,20683.0
1698415597.8010411,20675.0
1698415597.8214545,20666.0
1698415597.8418682,20659.0
1698415597.8622816,20644.0
1698415597.8826957,20633.0
1698415597.903109,20624.0
1698415597.9235227,20625.0
1698415597.9439363,20626.0
1698415597.96435,20628.0
1698415597.9847636,20625.0
1698415598.0051773,20610.0
1698415598.025591,20606.0
1698415598.0460045,20597.0
1698415598.0664182,20596.0
1698415598.0868318,20592.0
1698415598.1072454,20589.0
1698415598.127659,20592.0
1698415598.1480727,20592.0
1698415598.1684864,20598.0
1698415598.1889,20607.0
1698415598.2093136,20621.0
1698415598.2297273,20619.0
1698415598.250141,20628.0
1698415598.2705545,20632.0
1698415598.2909684,20639.0
1698415598.3113818,20643.0
1698415598.3317955,20652.0
1698415598.352209,20667.0
1698415598.3726227,20691.0
1698415598.3930364,20715.0
1698415598.41345,20731.0
1698415598.4338636,20753.0
1698415598.454277,20770.0
1698415598.474691,20800.0
1698415598.4951046,20818.0
1698415598.515518,20841.0
1698415598.5359318,20858.0
1698415598.5563457,20878.0
1698415598.576759,20894.0
1698415598.5971725,20914.0
1698415598.6175864,20919.0
1698415598.638,20931.0
1698415598.6584136,20936.0
1698415598.6788273,20944.0
1698415598.699241,20950.0
1698415598.7196543,20949.0
1698415598.7400682,20956.0
1698415598.7604818,20961.0
1698415598.7808955,20959.0
1698415598.801309,20956.0
1698415598.821723,20958.0
1698415598.8421364,20961.0
1698415598.86255,20968.0
1698415598.8829637,20972.0
1698415598.9033773,20972.0
1698415598.923791,20974.0
1698415598.9442046,20977.0
1698415598.9646182,20986.0
1698415598.9850316,20990.0
1698415599.0054455,20983.0
1698415599.025859,20987.0
1698415599.0462728,20996.0
1698415599.0666864,21000.0
1698415599.0871,21001.0
1698415599.1075137,21007.0
1698415599.1279273,21011.0
1698415599.1483407,21014.0
1698415599.1687546,21018.0
1698415599.1891682,21021.0
1698415599.2095819,21024.0
1698415599.2299953,21031.0
1698415599.2504091,21038.0
1698415599.2708228,21037.0
1698415599.2912364,21039.0
1698415599.3116498,21041.0
1698415599.3320637,21041.0
1698415599.3524773,21048.0
1698415599.372891,21049.0
1698415599.3933043,21051.0
1698415599.4137185,21046.0
1698415599.4341319,21050.0
1698415599.4545455,21055.0
1698415599.474959,21047.0
1698415599.4953728,21049.0
1698415599.5157864,21052.0
1698415599.5362,21055.0
1698415599.5566134,21058.0
1698415599.577027,21063.0
1698415599.597441,21064.0
1698415599.6178546,21062.0
1698415599.638268,21066.0
1698415599.6586819,21070.0
1698415599.6790957,21069.0
1698415599.6995091,21070.0
1698415599.7199225,21057.0
1698415599.7403364,21060.0
1698415599.76075,21065.0
1698415599.7811637,21063.0
1698415599.8015773,21071.0
1698415599.821991,21062.0
1698415599.8424044,21058.0
1698415599.862818,21048.0
1698415599.8832319,21032.0
1698415599.9036455,21025.0
1698415599.9240592,21016.0
1698415599.9444728,21015.0
1698415599.9648864,21018.0
1698415599.9853,21016.0
1698415600.0057137,21024.0
1698415600.026127,21030.0
1698415600.046541,21027.0
1698415600.0669546,21038.0
1698415600.0873682,21031.0
1698415600.1077814,21031.0
1698415600.1281955,21032.0
1698415600.1486092,21031.0
1698415600.1690228,21035.0
1698415600.1894362,21024.0
1698415600.20985,21026.0
1698415600.2302637,21031.0
1698415600.2506773,21027.0
1698415600.2710907,21023.0
1698415600.2915046,21027.0
1698415600.3119183,21015.0
1698415600.332332,21015.0
1698415600.3527453,21028.0
1698415600.3731592,21025.0
1698415600.3935728,21037.0
1698415600.4139864,21034.0
1698415600.4343998,21041.0
1698415600.4548137,21048.0
1698415600.4752274,21044.0
1698415600.4956408,21043.0
1698415600.5160544,21045.0
1698415600.5364685,21050.0
1698415600.556882,21041.0
1698415600.5772953,21038.0
1698415600.597709,21036.0
1698415600.6181228,21038.0
1698415600.6385365,21037.0
1698415600.6589499,21041.0
1698415600.6793635,21040.0
1698415600.6997771,21037.0
1698415600.720191,21039.0
1698415600.7406044,21039.0
1698415600.761018,21040.0
1698415600.781432,21043.0
1698415600.8018458,21038.0
1698415600.822259,21044.0
1698415600.8426726,21037.0
1698415600.8630865,21036.0
1698415600.8835,21037.0
1698415600.9039135,21038.0
1698415600.9243274,21039.0
1698415600.944741,21042.0
1698415600.9651544,21034.0
1698415600.985568,21046.0
1698415601.005982,21036.0
1698415601.0263956,21037.0
1698415601.0468092,21050.0
1698415601.0672228,21048.0
1698415601.0876365,21048.0
1698415601.10805,21055.0
1698415601.1284635,21050.0
1698415601.1488771,21066.0
1698415601.169291,21065.0
1698415601.1897047,21079.0
1698415601.210118,21080.0
1698415601.2305315,21089.0
1698415601.2509456,21101.0
1698415601.2713592,21107.0
1698415601.2917726,21120.0
1698415601.3121862,21124.0
1698415601.3326,21130.0
1698415601.3530138,21137.0
1698415601.3734272,21146.0
1698415601.3938408,21148.0
1698415601.4142547,21147.0
1698415601.4346683,21154.0
1698415601.4550817,21152.0
1698415601.4754953,21143.0
1698415601.4959092,21148.0
1698415601.5163229,21150.0
1698415601.5367362,21153.0
1698415601.55715,21145.0
1698415601.5775638,21151.0
1698415601.5979774,21150.0
1698415601.6183908,21140.0
1698415601.6388044,21140.0
1698415601.6592185,21136.0
1698415601.679632,21131.0
1698415601.7000453,21123.0
1698415601.720459,21120.0
1698415601.7408729,21112.0
1698415601.7612863,21115.0
1698415601.7817,21112.0
1698415601.8021135,21112.0
1698415601.8225272,21108.0
1698415601.8429408,21106.0
1698415601.8633544,21107.0
1698415601.883768,21106.0
1698415601.904182,21103.0
1698415601.9245956,21106.0
1698415601.945009,21099.0
1698415601.9654226,21100.0
1698415601.9858365,21096.0
1698415602.00625,21103.0
1698415602.0266635,21096.0
1698415602.0470774,21089.0
1698415602.067491,21093.0
1698415602.0879042,21091.0
1698415602.108318,21093.0
1698415602.128732,21087.0
1698415602.1491456,21089.0
1698415602.169559,21083.0
1698415602.1899729,21088.0
1698415602.2103865,21087.0
1698415602.2308002,21089.0
1698415602.2512136,21101.0
1698415602.2716272,21109.0
1698415602.292041,21124.0
1698415602.3124547,21141.0
1698415602.332868,21164.0
1698415602.3532815,21207.0
1698415602.3736956,21277.0
1698415602.3941092,21346.0
1698415602.4145226,21410.0
1698415602.4349363,21483.0
1698415602.4553502,21574.0
1698415602.4757636,21696.0
1698415602.4961772,21804.0
1698415602.5165908,21867.0
1698415602.5370047,21897.0
1698415602.557418,21926.0
1698415602.5778317,22036.0
1698415602.5982454,22315.0
1698415602.6186593,22271.0
1698415602.6390727,22175.0
1698415602.6594863,22098.0
1698415602.6799,22058.0
1698415602.7003138,22044.0
1698415602.7207272,22027.0
1698415602.7411408,22020.0
1698415602.7615545,22013.0
1698415602.7819686,22007.0
1698415602.8023818,21995.0
1698415602.8227954,21986.0
1698415602.843209,21974.0
1698415602.863623,21963.0
1698415602.8840363,21945.0
1698415602.90445,21935.0
1698415602.9248636,21928.0
1698415602.9452772,21910.0
1698415602.9656909,21903.0
1698415602.9861045,21887.0
1698415603.0065181,21874.0
1698415603.026932,21856.0
1698415603.0473456,21837.0
1698415603.067759,21814.0
1698415603.0881727,21790.0
1698415603.1085863,21776.0
1698415603.129,21759.0
1698415603.1494136,21748.0
1698415603.1698275,21736.0
1698415603.1902409,21725.0
1698415603.2106543,21712.0
1698415603.2310681,21706.0
1698415603.251482,21692.0
1698415603.2718954,21688.0
1698415603.292309,21677.0
1698415603.312723,21673.0
1698415603.3331366,21671.0
1698415603.35355,21672.0
1698415603.3739636,21661.0
1698415603.3943772,21657.0
1698415603.414791,21649.0
1698415603.4352045,21643.0
1698415603.4556181,21633.0
1698415603.4760315,21631.0
1698415603.4964457,21623.0
1698415603.516859,21608.0
1698415603.5372727,21593.0
1698415603.5576863,21584.0
1698415603.5781002,21572.0
1698415603.5985136,21574.0
1698415603.6189272,21564.0
1698415603.6393409,21560.0
1698415603.6597548,21551.0
1698415603.6801682,21547.0
1698415603.7005818,21549.0
1698415603.7209954,21545.0
1698415603.741409,21546.0
1698415603.7618227,21548.0
1698415603.7822363,21546.0
1698415603.80265,21543.0
1698415603.8230636,21547.0
1698415603.8434772,21546.0
1698415603.863891,21555.0
1698415603.8843045,21558.0
1698415603.9047184,21548.0
1698415603.9251318,21556.0
1698415603.9455454,21554.0
1698415603.965959,21553.0
1698415603.9863727,21554.0
1698415604.0067863,21548.0
1698415604.0272,21549.0
1698415604.0476136,21545.0
1698415604.068027,21559.0
1698415604.088441,21557.0
1698415604.1088545,21560.0
1698415604.1292682,21560.0
1698415604.1496818,21563.0
1698415604.1700957,21564.0
1698415604.190509,21564.0
1698415604.2109227,21570.0
1698415604.2313364,21568.0
1698415604.25175,21571.0
1698415604.2721636,21570.0
1698415604.2925775,21563.0
1698415604.312991,21563.0
1698415604.3334043,21552.0
1698415604.3538182,21546.0
1698415604.3742318,21548.0
1698415604.3946455,21543.0
1698415604.415059,21535.0
1698415604.435473,21527.0
1698415604.4558864,21522.0
1698415604.4763,21525.0
1698415604.4967136,21520.0
1698415604.5171273,21518.0
1698415604.537541,21521.0
1698415604.5579545,21519.0
1698415604.5783682,21516.0
1698415604.5987816,21518.0
1698415604.6191955,21510.0
1698415604.639609,21509.0
1698415604.6600227,21500.0
1698415604.6804364,21501.0
1698415604.70085,21502.0
1698415604.7212636,21499.0
1698415604.7416773,21498.0
1698415604.762091,21492.0
1698415604.7825046,21489.0
1698415604.8029182,21493.0
1698415604.8233318,21488.0
1698415604.8437455,21483.0
1698415604.864159,21478.0
1698415604.8845727,21483.0
1698415604.9049864,21480.0
1698415604.9254,21478.0
1698415604.9458137,21480.0
1698415604.9662273,21476.0
1698415604.986641,21473.0
1698415605.0070543,21470.0
1698415605.0274684,21470.0
1698415605.0478818,21469.0
1698415605.0682955,21471.0
1698415605.0887089,21456.0
1698415605.1091228,21450.0
1698415605.1295364,21434.0
1698415605.14995,21425.0
1698415605.1703634,21417.0
1698415605.190777,21409.0
1698415605.211191,21394.0
1698415605.2316046,21388.0
1698415605.252018,21387.0
1698415605.2724319,21380.0
1698415605.2928457,21370.0
1698415605.3132591,21372.0
1698415605.3336725,21363.0
1698415605.3540864,21357.0
1698415605.3745,21356.0
1698415605.3949137,21352.0
1698415605.4153273,21343.0
1698415605.435741,21344.0
1698415605.4561543,21332.0
1698415605.4765682,21336.0
1698415605.4969819,21332.0
1698415605.5173955,21328.0
1698415605.5378091,21322.0
1698415605.558223,21328.0
1698415605.5786364,21323.0
1698415605.59905,21327.0
1698415605.6194637,21326.0
1698415605.639877,21324.0
1698415605.660291,21326.0
1698415605.6807046,21323.0
1698415605.7011182,21323.0
1698415605.7215314,21329.0
1698415605.7419455,21328.0
1698415605.7623591,21332.0
1698415605.7827728,21334.0
1698415605.8031862,21330.0
1698415605.8236,21336.0
1698415605.8440137,21335.0
1698415605.8644273,21336.0
1698415605.8848407,21339.0
1698415605.9052546,21336.0
1698415605.9256682,21334.0
1698415605.9460819,21333.0
1698415605.9664953,21323.0
1698415605.9869092,21315.0
