timestamp,ppg
1698920729.004803,14814.0
1698920729.0252788,14807.0
1698920729.0457547,14810.0
1698920729.0662303,14810.0
1698920729.0867062,14810.0
1698920729.1071818,14806.0
1698920729.1276577,14799.0
1698920729.1481333,14803.0
1698920729.1686091,14803.0
1698920729.189085,14803.0
1698920729.2095604,14797.0
1698920729.2300363,14795.0
1698920729.2505121,14800.0
1698920729.2709877,14800.0
1698920729.2914636,14798.0
1698920729.3119397,14794.0
1698920729.332415,14798.0
1698920729.352891,14798.0
1698920729.3733666,14799.0
1698920729.3938422,14793.0
1698920729.414318,14792.0
1698920729.434794,14792.0
1698920729.4552698,14791.0
1698920729.4757454,14796.0
1698920729.4962213,14795.0
1698920729.516697,14789.0
1698920729.5371726,14789.0
1698920729.5576484,14792.0
1698920729.5781245,14793.0
1698920729.5986001,14797.0
1698920729.6190758,14812.0
1698920729.6395514,14791.0
1698920729.660027,14787.0
1698920729.680503,14785.0
1698920729.7009788,14790.0
1698920729.7214546,14790.0
1698920729.7419305,14785.0
1698920729.762406,14785.0
1698920729.7828817,14785.0
1698920729.8033576,14790.0
1698920729.8238332,14787.0
1698920729.844309,14789.0
1698920729.864785,14787.0
1698920729.8852606,14785.0
1698920729.9057364,14785.0
1698920729.926212,14781.0
1698920729.946688,14785.0
1698920729.9671636,14782.0
1698920729.9876394,14776.0
1698920730.0081153,14773.0
1698920730.028591,14774.0
1698920730.0490668,14773.0
1698920730.0695424,14776.0
1698920730.090018,14774.0
1698920730.110494,14773.0
1698920730.1309695,14770.0
1698920730.1514456,14770.0
1698920730.1719213,14772.0
1698920730.1923969,14771.0
1698920730.2128727,14767.0
1698920730.2333484,14767.0
1698920730.2538242,14769.0
1698920730.2743,14768.0
1698920730.294776,14765.0
1698920730.3152518,14762.0
1698920730.3357272,14763.0
1698920730.356203,14763.0
1698920730.3766787,14760.0
1698920730.3971543,14763.0
1698920730.4176304,14761.0
1698920730.438106,14758.0
1698920730.4585817,14758.0
1698920730.4790576,14762.0
1698920730.4995334,14759.0
1698920730.520009,14754.0
1698920730.540485,14752.0
1698920730.5609608,14757.0
1698920730.5814364,14755.0
1698920730.601912,14751.0
1698920730.622388,14751.0
1698920730.6428635,14750.0
1698920730.6633394,14755.0
1698920730.6838152,14748.0
1698920730.704291,14751.0
1698920730.7247665,14743.0
1698920730.7452424,14750.0
1698920730.7657185,14747.0
1698920730.7861938,14745.0
1698920730.8066697,14752.0
1698920730.8271456,14747.0
1698920730.8476212,14748.0
1698920730.8680968,14746.0
1698920730.8885727,14728.0
1698920730.9090486,14753.0
1698920730.9295242,14742.0
1698920730.970476,14738.0
1698920730.9909513,14741.0
1698920731.0114272,14735.0
1698920731.031903,14734.0
1698920731.052379,14735.0
1698920731.0728545,14734.0
1698920731.0933304,14731.0
1698920731.1138062,14733.0
1698920731.1342814,14729.0
1698920731.1547575,14729.0
1698920731.1752334,14730.0
1698920731.195709,14730.0
1698920731.2161849,14722.0
1698920731.2366607,14727.0
1698920731.2571366,14720.0
1698920731.277612,14725.0
1698920731.2980878,14724.0
1698920731.3185637,14727.0
1698920731.3390393,14720.0
1698920731.3595152,14720.0
1698920731.379991,14720.0
1698920731.4004664,14717.0
1698920731.4209423,14721.0
1698920731.4414182,14718.0
1698920731.461894,14716.0
1698920731.4823697,14718.0
1698920731.5028458,14717.0
1698920731.5233214,14716.0
1698920731.5437968,14717.0
1698920731.5642726,14717.0
1698920731.5847483,14718.0
1698920731.6052241,14705.0
1698920731.6257,14714.0
1698920731.6461759,14714.0
1698920731.6666517,14714.0
1698920731.687127,14715.0
1698920731.707603,14708.0
1698920731.7280788,14720.0
1698920731.7485545,14713.0
1698920731.7690306,14712.0
1698920731.7895062,14706.0
1698920731.8099818,14706.0
1698920731.8304574,14706.0
1698920731.850933,14706.0
1698920731.8714092,14709.0
1698920731.8918848,14700.0
1698920731.9123607,14701.0
1698920731.9328365,14699.0
1698920731.953312,14704.0
1698920731.9737878,14699.0
1698920731.9942636,14696.0
1698920732.0147395,14704.0
1698920732.0352151,14697.0
1698920732.055691,14697.0
1698920732.0761666,14697.0
1698920732.0966423,14703.0
1698920732.1171181,14710.0
1698920732.137594,14713.0
1698920732.1580696,14707.0
1698920732.1785455,14708.0
1698920732.1990213,14706.0
1698920732.219497,14696.0
1698920732.2399728,14692.0
1698920732.2604485,14690.0
1698920732.2809243,14694.0
1698920732.3014,14695.0
1698920732.3218756,14695.0
1698920732.3423517,14690.0
1698920732.3628273,14690.0
1698920732.383303,14692.0
1698920732.4037788,14686.0
1698920732.4242547,14690.0
1698920732.4447303,14695.0
1698920732.4652061,14691.0
1698920732.4856818,14686.0
1698920732.5061576,14687.0
1698920732.5266333,14687.0
1698920732.5471091,14684.0
1698920732.567585,14688.0
1698920732.5880604,14685.0
1698920732.6085365,14683.0
1698920732.629012,14679.0
1698920732.6494877,14684.0
1698920732.6699636,14683.0
1698920732.6904397,14675.0
1698920732.710915,14678.0
1698920732.731391,14667.0
1698920732.7518668,14673.0
1698920732.7723422,14667.0
1698920732.792818,14668.0
1698920732.813294,14666.0
1698920732.8337698,14661.0
1698920732.8542454,14659.0
1698920732.8747213,14656.0
1698920732.895197,14649.0
1698920732.9156725,14650.0
1698920732.9361484,14646.0
1698920732.9566245,14646.0
1698920732.9771001,14636.0
1698920732.9975758,14637.0
1698920733.0180516,14635.0
1698920733.038527,14635.0
1698920733.0590029,14635.0
1698920733.0794787,14633.0
1698920733.0999546,14634.0
1698920733.1204305,14626.0
1698920733.140906,14627.0
1698920733.1613817,14626.0
1698920733.1818576,14628.0
1698920733.2023332,14617.0
1698920733.222809,14620.0
1698920733.243285,14621.0
1698920733.2637606,14619.0
1698920733.2842364,14617.0
1698920733.304712,14614.0
1698920733.325188,14614.0
1698920733.3456635,14613.0
1698920733.3661394,14613.0
1698920733.3866153,14615.0
1698920733.407091,14609.0
1698920733.427567,14603.0
1698920733.4480424,14608.0
1698920733.468518,14619.0
1698920733.488994,14619.0
1698920733.5094695,14607.0
1698920733.5299456,14599.0
1698920733.5504212,14600.0
1698920733.5708969,14602.0
1698920733.5913727,14599.0
1698920733.6118484,14602.0
1698920733.6323242,14597.0
1698920733.6528,14601.0
1698920733.673276,14608.0
1698920733.6937518,14616.0
1698920733.7142272,14628.0
1698920733.734703,14638.0
1698920733.7551787,14643.0
1698920733.7756543,14652.0
1698920733.7961304,14667.0
1698920733.816606,14667.0
1698920733.8370817,14676.0
1698920733.8575575,14692.0
1698920733.8780334,14719.0
1698920733.898509,14764.0
1698920733.918985,14830.0
1698920733.9394608,14905.0
1698920733.9599364,14999.0
1698920733.980412,15139.0
1698920734.0008879,15376.0
1698920734.0213635,15541.0
1698920734.0418394,15602.0
1698920734.0623152,15641.0
1698920734.082791,15706.0
1698920734.1032667,15751.0
1698920734.1237423,15796.0
1698920734.1442184,15859.0
1698920734.1646938,15930.0
1698920734.1851697,15974.0
1698920734.2056456,16015.0
1698920734.2261212,16038.0
1698920734.2465968,16058.0
1698920734.2670727,16063.0
1698920734.2875485,16064.0
1698920734.3080242,16066.0
1698920734.3285,16084.0
1698920734.348976,16106.0
1698920734.3694515,16147.0
1698920734.3899271,16166.0
1698920734.410403,16171.0
1698920734.4308789,16140.0
1698920734.4513545,16100.0
1698920734.4718304,16055.0
1698920734.4923062,16026.0
1698920734.5127814,15982.0
1698920734.5332575,15956.0
1698920734.5537333,15899.0
1698920734.574209,15835.0
1698920734.5946848,15784.0
1698920734.6151607,15760.0
1698920734.6356366,15738.0
1698920734.656112,15718.0
1698920734.6765878,15700.0
1698920734.6970637,15680.0
1698920734.7175393,15670.0
1698920734.7380152,15663.0
1698920734.758491,15660.0
1698920734.7789667,15630.0
1698920734.7994423,15614.0
1698920734.8199182,15599.0
1698920734.840394,15578.0
1698920734.8608696,15563.0
1698920734.8813457,15547.0
1698920734.9018214,15532.0
1698920734.9222968,15508.0
1698920734.9427726,15484.0
1698920734.9632483,15467.0
1698920734.983724,15454.0
1698920735.0042,15453.0
1698920735.0246758,15447.0
1698920735.0451517,15423.0
1698920735.065627,15415.0
1698920735.086103,15421.0
1698920735.1065788,15422.0
1698920735.1270545,15403.0
1698920735.1475306,15386.0
1698920735.1680062,15368.0
1698920735.188482,15350.0
1698920735.2089574,15351.0
1698920735.229433,15355.0
1698920735.2499092,15356.0
1698920735.2703848,15359.0
1698920735.2908607,15361.0
1698920735.3113365,15360.0
1698920735.331812,15355.0
1698920735.3522878,15351.0
1698920735.3727636,15338.0
1698920735.3932395,15328.0
1698920735.4137151,15325.0
1698920735.434191,15322.0
1698920735.4546669,15317.0
1698920735.4751422,15316.0
1698920735.495618,15316.0
1698920735.516094,15312.0
1698920735.5365696,15311.0
1698920735.5570455,15314.0
1698920735.5775213,15314.0
1698920735.5979972,15319.0
1698920735.6184728,15313.0
1698920735.6389484,15317.0
1698920735.6594243,15318.0
1698920735.6799,15316.0
1698920735.7003756,15316.0
1698920735.7208517,15316.0
1698920735.7413273,15319.0
1698920735.761803,15323.0
1698920735.7822788,15320.0
1698920735.8027546,15325.0
1698920735.8232303,15323.0
1698920735.8437061,15325.0
1698920735.864182,15324.0
1698920735.8846576,15328.0
1698920735.9051332,15323.0
1698920735.925609,15329.0
1698920735.946085,15329.0
1698920735.9665604,15326.0
1698920735.9870365,15327.0
1698920736.007512,15327.0
1698920736.0279877,15328.0
1698920736.0484636,15344.0
1698920736.0689397,15328.0
1698920736.089415,15326.0
1698920736.109891,15331.0
1698920736.1303668,15331.0
1698920736.1508422,15328.0
1698920736.171318,15324.0
1698920736.191794,15327.0
1698920736.2122698,15329.0
1698920736.2327454,15329.0
1698920736.2532213,15334.0
1698920736.2736971,15337.0
1698920736.2941725,15336.0
1698920736.3146484,15334.0
1698920736.3351245,15337.0
1698920736.3556,15335.0
1698920736.3760757,15343.0
1698920736.3965516,15339.0
1698920736.417027,15337.0
1698920736.4375029,15338.0
1698920736.4579787,15341.0
1698920736.4784546,15346.0
1698920736.4989305,15343.0
1698920736.519406,15346.0
1698920736.539882,15349.0
1698920736.5603576,15346.0
1698920736.5808332,15349.0
1698920736.601309,15352.0
1698920736.621785,15350.0
1698920736.6422606,15349.0
1698920736.6627364,15352.0
1698920736.683212,15351.0
1698920736.703688,15353.0
1698920736.7241635,15351.0
1698920736.7446394,15350.0
1698920736.7651153,15352.0
1698920736.785591,15359.0
1698920736.806067,15361.0
1698920736.8265424,15359.0
1698920736.847018,15356.0
1698920736.8674939,15363.0
1698920736.8879695,15362.0
1698920736.9084456,15360.0
1698920736.9289212,15368.0
1698920736.949397,15371.0
1698920736.9698727,15370.0
1698920736.9903483,15369.0
1698920737.0108242,15373.0
1698920737.0313,15374.0
1698920737.051776,15374.0
1698920737.0722518,15375.0
1698920737.0927272,15383.0
1698920737.113203,15385.0
1698920737.1336787,15387.0
1698920737.1541543,15389.0
1698920737.1746304,15386.0
1698920737.195106,15389.0
1698920737.215582,15397.0
1698920737.2360575,15392.0
1698920737.2565334,15391.0
1698920737.277009,15404.0
1698920737.2974849,15407.0
1698920737.3179607,15413.0
1698920737.3384364,15413.0
1698920737.358912,15403.0
1698920737.3793879,15411.0
1698920737.3998635,15411.0
1698920737.4203393,15411.0
1698920737.4408152,15412.0
1698920737.461291,15417.0
1698920737.4817667,15416.0
1698920737.5022423,15414.0
1698920737.5227184,15419.0
1698920737.5431938,15418.0
1698920737.5636697,15423.0
1698920737.5841455,15422.0
1698920737.6046212,15419.0
1698920737.625097,15428.0
1698920737.6455727,15424.0
1698920737.6660485,15430.0
1698920737.6865242,15433.0
1698920737.727476,15433.0
1698920737.7479515,15436.0
1698920737.7684271,15433.0
1698920737.788903,15433.0
1698920737.8093789,15435.0
1698920737.8298545,15441.0
1698920737.8503304,15445.0
1698920737.8708062,15446.0
1698920737.8912816,15442.0
1698920737.9117575,15448.0
1698920737.9322333,15447.0
1698920737.952709,15447.0
1698920737.9731848,15453.0
1698920737.9936607,15452.0
1698920738.0141366,15451.0
1698920738.0346122,15453.0
1698920738.0550878,15456.0
1698920738.0755637,15451.0
1698920738.0960393,15461.0
1698920738.1165152,15468.0
1698920738.136991,15466.0
1698920738.1574667,15467.0
1698920738.1779423,15469.0
1698920738.1984181,15469.0
1698920738.218894,15468.0
1698920738.2393696,15471.0
1698920738.2598457,15469.0
1698920738.2803214,15475.0
1698920738.300797,15477.0
1698920738.3212726,15480.0
1698920738.3417482,15480.0
1698920738.362224,15485.0
1698920738.3827,15482.0
1698920738.4031758,15482.0
1698920738.4236517,15484.0
1698920738.444127,15491.0
1698920738.464603,15491.0
1698920738.4850788,15497.0
1698920738.5055544,15493.0
1698920738.5260305,15501.0
1698920738.5465062,15501.0
1698920738.566982,15499.0
1698920738.5874574,15506.0
1698920738.607933,15512.0
1698920738.6284091,15487.0
1698920738.6488848,15510.0
1698920738.6693606,15509.0
1698920738.6898365,15511.0
1698920738.7103121,15508.0
1698920738.7307878,15512.0
1698920738.7512636,15515.0
1698920738.7717395,15513.0
1698920738.792215,15510.0
1698920738.812691,15513.0
1698920738.8331668,15517.0
1698920738.8536422,15512.0
1698920738.874118,15514.0
1698920738.894594,15513.0
1698920738.9150696,15516.0
1698920738.9355454,15508.0
1698920738.9560213,15511.0
1698920738.9764972,15510.0
1698920738.9969728,15513.0
1698920739.0174484,15512.0
1698920739.0379243,15511.0
1698920739.0584,15509.0
1698920739.0788755,15518.0
1698920739.0993516,15518.0
1698920739.1198275,15522.0
1698920739.140303,15510.0
1698920739.1607788,15507.0
1698920739.1812546,15503.0
1698920739.2017303,15503.0
1698920739.222206,15505.0
1698920739.242682,15509.0
1698920739.2631576,15509.0
1698920739.2836332,15509.0
1698920739.304109,15510.0
1698920739.324585,15509.0
1698920739.3450603,15505.0
1698920739.3655365,15503.0
1698920739.3860123,15501.0
1698920739.4064877,15496.0
1698920739.4269636,15487.0
1698920739.4474397,15484.0
1698920739.467915,15477.0
1698920739.488391,15477.0
1698920739.5088668,15464.0
1698920739.5293422,15461.0
1698920739.549818,15456.0
1698920739.570294,15457.0
1698920739.5907698,15462.0
1698920739.6112454,15469.0
1698920739.6317213,15466.0
1698920739.6521971,15473.0
1698920739.6726725,15479.0
1698920739.6931484,15476.0
1698920739.7136245,15479.0
1698920739.7341,15486.0
1698920739.7545757,15481.0
1698920739.7750516,15481.0
1698920739.795527,15484.0
1698920739.8160028,15479.0
1698920739.8364787,15481.0
1698920739.8569546,15479.0
1698920739.8774304,15476.0
1698920739.897906,15482.0
1698920739.918382,15480.0
1698920739.9388576,15478.0
1698920739.9593332,15478.0
1698920739.979809,15476.0
1698920740.000285,15482.0
1698920740.0207605,15484.0
1698920740.0412364,15482.0
1698920740.0617123,15481.0
1698920740.082188,15485.0
1698920740.1026635,15490.0
1698920740.1231394,15485.0
1698920740.1436152,15484.0
1698920740.1640909,15482.0
1698920740.184567,15481.0
1698920740.2050424,15489.0
1698920740.225518,15489.0
1698920740.2459939,15489.0
1698920740.2664695,15490.0
1698920740.2869456,15493.0
1698920740.3074212,15490.0
1698920740.327897,15488.0
1698920740.3483727,15483.0
1698920740.3688483,15491.0
1698920740.3893242,15489.0
1698920740.4098,15496.0
1698920740.430276,15490.0
1698920740.4507518,15491.0
1698920740.4712274,15489.0
1698920740.491703,15489.0
1698920740.5121787,15490.0
1698920740.5326543,15488.0
1698920740.5531304,15495.0
1698920740.573606,15483.0
1698920740.5940819,15490.0
1698920740.6145575,15490.0
1698920740.6350334,15495.0
1698920740.655509,15498.0
1698920740.6759849,15492.0
1698920740.6964607,15494.0
1698920740.7169363,15490.0
1698920740.7374122,15495.0
1698920740.7578878,15496.0
1698920740.7783635,15491.0
1698920740.7988393,15490.0
1698920740.8193152,15487.0
1698920740.839791,15483.0
1698920740.8602667,15482.0
1698920740.8807425,15484.0
1698920740.9012184,15488.0
1698920740.9216938,15489.0
1698920740.9421697,15490.0
1698920740.9626455,15489.0
1698920740.9831212,15485.0
1698920741.003597,15488.0
1698920741.0240726,15483.0
1698920741.0445485,15484.0
1698920741.0650241,15486.0
1698920741.0855,15484.0
1698920741.1059759,15484.0
1698920741.1264515,15481.0
1698920741.1469274,15481.0
1698920741.167403,15482.0
1698920741.1878788,15490.0
1698920741.2083545,15474.0
1698920741.2288303,15464.0
1698920741.2493062,15456.0
1698920741.2697816,15456.0
1698920741.2902575,15450.0
1698920741.3107333,15447.0
1698920741.331209,15448.0
1698920741.3516848,15448.0
1698920741.3721607,15456.0
1698920741.3926365,15454.0
1698920741.4131122,15462.0
1698920741.4335878,15458.0
1698920741.4540637,15465.0
1698920741.4745393,15461.0
1698920741.4950151,15470.0
1698920741.515491,15476.0
1698920741.5359666,15472.0
1698920741.5564425,15464.0
1698920741.5769181,15462.0
1698920741.597394,15466.0
1698920741.6178696,15462.0
1698920741.6383457,15467.0
1698920741.6588213,15461.0
1698920741.679297,15460.0
1698920741.6997726,15461.0
1698920741.7202482,15462.0
1698920741.740724,15464.0
1698920741.7612,15461.0
1698920741.7816758,15459.0
1698920741.8021517,15469.0
1698920741.8226273,15478.0
1698920741.843103,15480.0
1698920741.8635788,15482.0
1698920741.8840544,15486.0
1698920741.9045305,15484.0
1698920741.9250062,15484.0
1698920741.945482,15484.0
1698920741.9659574,15486.0
1698920741.986433,15480.0
1698920742.0069091,15483.0
1698920742.0273848,15488.0
1698920742.0478606,15492.0
1698920742.0683365,15489.0
1698920742.088812,15483.0
1698920742.1092877,15483.0
1698920742.1297636,15485.0
1698920742.1502395,15490.0
1698920742.170715,15490.0
1698920742.191191,15496.0
1698920742.2116668,15489.0
1698920742.2321424,15488.0
1698920742.252618,15490.0
1698920742.273094,15490.0
1698920742.2935696,15488.0
1698920742.3140454,15487.0
1698920742.3345213,15487.0
1698920742.3549972,15487.0
1698920742.3754728,15491.0
1698920742.3959484,15504.0
1698920742.4164243,15509.0
1698920742.4369,15517.0
1698920742.4573755,15521.0
1698920742.4778516,15518.0
1698920742.4983275,15505.0
1698920742.518803,15505.0
1698920742.5392787,15505.0
1698920742.5597546,15505.0
1698920742.5802302,15505.0
1698920742.600706,15511.0
1698920742.621182,15509.0
1698920742.6416578,15511.0
1698920742.6621332,15519.0
1698920742.682609,15515.0
1698920742.703085,15509.0
1698920742.7235603,15508.0
1698920742.7440364,15507.0
1698920742.7645123,15510.0
1698920742.7849877,15506.0
1698920742.8054636,15521.0
1698920742.8259397,15526.0
1698920742.846415,15518.0
1698920742.866891,15522.0
1698920742.8873668,15518.0
1698920742.9078424,15522.0
1698920742.928318,15527.0
1698920742.948794,15526.0
1698920742.9692698,15530.0
1698920742.9897454,15526.0
1698920743.0102212,15526.0
1698920743.030697,15523.0
1698920743.0511725,15517.0
1698920743.0716484,15517.0
1698920743.0921245,15513.0
1698920743.1126,15507.0
1698920743.1330757,15504.0
1698920743.1535516,15499.0
1698920743.1740272,15498.0
1698920743.1945028,15492.0
1698920743.2149787,15499.0
1698920743.2354546,15501.0
1698920743.2559304,15513.0
1698920743.276406,15516.0
1698920743.296882,15520.0
1698920743.3173578,15522.0
1698920743.3378332,15526.0
1698920743.358309,15535.0
1698920743.378785,15535.0
1698920743.3992605,15535.0
1698920743.4197364,15529.0
1698920743.4402122,15531.0
1698920743.4606879,15528.0
1698920743.4811635,15527.0
1698920743.5016394,15514.0
1698920743.5221152,15513.0
1698920743.5425909,15513.0
1698920743.563067,15518.0
1698920743.5835426,15510.0
1698920743.604018,15510.0
1698920743.6244938,15511.0
1698920743.6449695,15513.0
1698920743.6654456,15520.0
1698920743.6859212,15535.0
1698920743.706397,15547.0
1698920743.726873,15549.0
1698920743.7473483,15552.0
1698920743.7678242,15549.0
1698920743.7883,15536.0
1698920743.808776,15540.0
1698920743.8292518,15534.0
1698920743.8497274,15538.0
1698920743.870203,15541.0
1698920743.8906786,15539.0
1698920743.9111543,15544.0
1698920743.9316304,15539.0
1698920743.952106,15540.0
1698920743.9725819,15542.0
1698920743.9930577,15545.0
1698920744.0135334,15543.0
1698920744.034009,15541.0
1698920744.0544848,15546.0
1698920744.0749607,15546.0
1698920744.0954363,15556.0
1698920744.1159122,15549.0
1698920744.1363878,15549.0
1698920744.1568635,15549.0
1698920744.1773393,15547.0
1698920744.1978152,15546.0
1698920744.218291,15543.0
1698920744.2387667,15542.0
1698920744.2592425,15545.0
1698920744.2797184,15542.0
1698920744.3001938,15541.0
1698920744.3206697,15545.0
1698920744.3411455,15548.0
1698920744.3616211,15542.0
1698920744.382097,15545.0
1698920744.4025729,15546.0
1698920744.4230485,15542.0
1698920744.4435241,15539.0
1698920744.484448,15538.0
1698920744.5048957,15544.0
1698920744.5253437,15542.0
1698920744.5457914,15550.0
1698920744.5662396,15552.0
1698920744.5866876,15549.0
1698920744.6071355,15550.0
1698920744.6275833,15545.0
1698920744.6480312,15535.0
1698920744.6684792,15535.0
1698920744.688927,15539.0
1698920744.709375,15542.0
1698920744.729823,15551.0
1698920744.7502708,15558.0
1698920744.7707188,15555.0
1698920744.7911668,15560.0
1698920744.8116145,15553.0
1698920744.8320625,15556.0
1698920744.8525105,15557.0
1698920744.8729584,15560.0
1698920744.8934062,15556.0
1698920744.9138544,15560.0
1698920744.934302,15552.0
1698920744.95475,15551.0
1698920744.975198,15546.0
1698920744.9956458,15544.0
1698920745.0160937,15548.0
1698920745.0365415,15553.0
1698920745.0569894,15542.0
1698920745.0774374,15534.0
1698920745.0978856,15529.0
1698920745.1183333,15523.0
1698920745.1387813,15521.0
1698920745.1592293,15524.0
1698920745.179677,15528.0
1698920745.200125,15523.0
1698920745.220573,15531.0
1698920745.2410207,15528.0
1698920745.2614686,15533.0
1698920745.2819169,15532.0
1698920745.3023646,15539.0
1698920745.3228126,15529.0
1698920745.3432605,15530.0
1698920745.3637085,15527.0
1698920745.3841562,15521.0
1698920745.4046042,15514.0
1698920745.425052,15508.0
1698920745.4455,15508.0
1698920745.465948,15495.0
1698920745.4863958,15493.0
1698920745.5068438,15488.0
1698920745.5272915,15490.0
1698920745.5477395,15497.0
1698920745.5681875,15498.0
1698920745.5886354,15495.0
1698920745.6090832,15505.0
1698920745.6295311,15505.0
1698920745.6499794,15507.0
1698920745.670427,15510.0
1698920745.690875,15511.0
1698920745.711323,15512.0
1698920745.7317708,15514.0
1698920745.7522187,15515.0
1698920745.7726667,15514.0
1698920745.7931144,15520.0
1698920745.8135624,15518.0
1698920745.8340106,15522.0
1698920745.8544586,15523.0
1698920745.8749063,15530.0
1698920745.8953543,15529.0
1698920745.915802,15524.0
1698920745.93625,15513.0
1698920745.956698,15518.0
1698920745.9771457,15521.0
1698920745.9975936,15519.0
1698920746.0180416,15523.0
1698920746.0384896,15528.0
1698920746.0589375,15523.0
1698920746.0793855,15509.0
1698920746.0998333,15511.0
1698920746.1202812,15508.0
1698920746.1407292,15509.0
1698920746.161177,15511.0
1698920746.181625,15509.0
1698920746.202073,15516.0
1698920746.2225208,15516.0
1698920746.2429688,15532.0
1698920746.2634168,15535.0
1698920746.2838645,15533.0
1698920746.3043125,15536.0
1698920746.3247604,15531.0
1698920746.3452084,15531.0
1698920746.3656561,15523.0
1698920746.3861043,15520.0
1698920746.406552,15521.0
1698920746.447448,15520.0
1698920746.4678957,15524.0
1698920746.4883437,15523.0
1698920746.5087914,15517.0
1698920746.5292394,15521.0
1698920746.5496874,15527.0
1698920746.5701356,15533.0
1698920746.5905833,15534.0
1698920746.6110313,15542.0
1698920746.6314793,15542.0
1698920746.651927,15541.0
1698920746.672375,15535.0
1698920746.692823,15535.0
1698920746.7132707,15534.0
1698920746.7337186,15540.0
1698920746.7541668,15542.0
1698920746.7746146,15540.0
1698920746.7950625,15542.0
1698920746.8155105,15536.0
1698920746.8359585,15532.0
1698920746.8564062,15527.0
1698920746.8768542,15523.0
1698920746.897302,15513.0
1698920746.91775,15513.0
1698920746.938198,15507.0
1698920746.9586458,15506.0
1698920746.9790938,15498.0
1698920746.9995415,15498.0
1698920747.0199895,15493.0
1698920747.0404375,15503.0
1698920747.0608854,15505.0
1698920747.0813332,15512.0
1698920747.1017814,15511.0
1698920747.1222293,15521.0
1698920747.142677,15514.0
1698920747.163125,15515.0
1698920747.183573,15510.0
1698920747.2040207,15508.0
1698920747.2244687,15503.0
1698920747.2449167,15503.0
1698920747.2653644,15500.0
1698920747.2858126,15489.0
1698920747.3062606,15489.0
1698920747.3267086,15483.0
1698920747.3471563,15477.0
1698920747.3676043,15477.0
1698920747.388052,15477.0
1698920747.4085,15476.0
1698920747.428948,15476.0
1698920747.4493957,15491.0
1698920747.4698439,15492.0
1698920747.4902916,15494.0
1698920747.5107396,15499.0
1698920747.5311875,15471.0
1698920747.5516355,15501.0
1698920747.5720832,15501.0
1698920747.5925312,15498.0
1698920747.6129792,15503.0
1698920747.633427,15496.0
1698920747.653875,15488.0
1698920747.674323,15493.0
1698920747.6947708,15494.0
1698920747.7152188,15497.0
1698920747.7356668,15491.0
1698920747.7561145,15481.0
1698920747.7765625,15482.0
1698920747.7970104,15477.0
1698920747.8174584,15481.0
1698920747.8379064,15480.0
1698920747.8583543,15477.0
1698920747.878802,15474.0
1698920747.89925,15473.0
1698920747.919698,15474.0
1698920747.9401457,15467.0
1698920747.9605937,15466.0
1698920747.9810414,15467.0
1698920748.0014894,15469.0
1698920748.0219376,15466.0
1698920748.0423856,15473.0
1698920748.0628333,15478.0
1698920748.0832813,15478.0
1698920748.1037292,15478.0
1698920748.124177,15477.0
1698920748.144625,15480.0
1698920748.165073,15476.0
1698920748.1855206,15481.0
1698920748.2059689,15476.0
1698920748.2264168,15485.0
1698920748.2468646,15488.0
1698920748.2673125,15484.0
1698920748.2877605,15486.0
1698920748.3082085,15490.0
1698920748.3286562,15489.0
1698920748.3491042,15495.0
1698920748.369552,15504.0
1698920748.410448,15515.0
1698920748.4308958,15516.0
1698920748.4513438,15511.0
1698920748.4717915,15506.0
1698920748.4922395,15508.0
1698920748.5126874,15506.0
1698920748.5331354,15502.0
1698920748.5535831,15501.0
1698920748.5740314,15503.0
1698920748.5944793,15501.0
1698920748.614927,15502.0
1698920748.635375,15500.0
1698920748.655823,15499.0
1698920748.6762707,15499.0
1698920748.6967187,15505.0
1698920748.7171667,15504.0
1698920748.7376144,15511.0
1698920748.7580626,15513.0
1698920748.7785106,15513.0
1698920748.7989585,15510.0
1698920748.8194063,15512.0
1698920748.8398542,15511.0
1698920748.860302,15519.0
1698920748.88075,15523.0
1698920748.901198,15533.0
1698920748.9216456,15518.0
1698920748.9420938,15520.0
1698920748.9625416,15520.0
1698920748.9829895,15518.0
1698920749.0034375,15514.0
1698920749.0238855,15509.0
1698920749.0443332,15503.0
1698920749.0647812,15504.0
1698920749.0852292,15501.0
1698920749.105677,15489.0
1698920749.126125,15494.0
1698920749.146573,15491.0
1698920749.1670208,15491.0
1698920749.1874688,15498.0
1698920749.2079167,15501.0
1698920749.2283645,15499.0
1698920749.2488124,15501.0
1698920749.2692604,15508.0
1698920749.2897086,15507.0
1698920749.3101563,15511.0
1698920749.3306043,15512.0
1698920749.351052,15514.0
1698920749.3715,15508.0
1698920749.391948,15507.0
1698920749.4123957,15510.0
1698920749.4328437,15509.0
1698920749.4532914,15502.0
1698920749.4737394,15506.0
1698920749.4941876,15505.0
1698920749.5146356,15501.0
1698920749.5350833,15502.0
1698920749.5555313,15495.0
1698920749.5759792,15493.0
1698920749.596427,15494.0
1698920749.616875,15492.0
1698920749.637323,15489.0
1698920749.6577706,15487.0
1698920749.6782188,15483.0
1698920749.6986668,15485.0
1698920749.7191145,15478.0
1698920749.7395625,15485.0
1698920749.7600105,15478.0
1698920749.7804585,15477.0
1698920749.8009062,15485.0
1698920749.8213542,15481.0
1698920749.8418021,15484.0
1698920749.86225,15482.0
1698920749.882698,15485.0
1698920749.9031458,15490.0
1698920749.9235938,15490.0
1698920749.9440415,15493.0
1698920749.9644895,15494.0
1698920749.9849374,15504.0
1698920750.0053854,15503.0
1698920750.0258334,15504.0
1698920750.0462813,15512.0
1698920750.0667293,15512.0
1698920750.087177,15511.0
1698920750.107625,15511.0
1698920750.128073,15506.0
1698920750.1485207,15520.0
1698920750.1689687,15515.0
1698920750.1894166,15514.0
1698920750.2098646,15501.0
1698920750.2303126,15508.0
1698920750.2507606,15508.0
1698920750.2712085,15501.0
1698920750.2916563,15499.0
1698920750.3121042,15501.0
1698920750.332552,15498.0
1698920750.373448,15499.0
1698920750.3938959,15499.0
1698920750.4143438,15496.0
1698920750.4347916,15496.0
1698920750.4552395,15495.0
1698920750.4756875,15490.0
1698920750.4961355,15482.0
1698920750.5165832,15489.0
1698920750.5370312,15477.0
1698920750.5574791,15476.0
1698920750.577927,15478.0
1698920750.598375,15475.0
1698920750.618823,15474.0
1698920750.6392708,15474.0
1698920750.6597188,15484.0
1698920750.6801667,15487.0
1698920750.7006145,15502.0
1698920750.7210624,15509.0
1698920750.7415104,15507.0
1698920750.7619586,15513.0
1698920750.7824063,15516.0
1698920750.8028543,15513.0
1698920750.823302,15517.0
1698920750.84375,15511.0
1698920750.864198,15507.0
1698920750.8846457,15500.0
1698920750.9050937,15493.0
1698920750.9255414,15489.0
1698920750.9459896,15486.0
1698920750.9664376,15493.0
1698920750.9868855,15493.0
1698920751.0073333,15485.0
1698920751.0277812,15494.0
1698920751.0482292,15492.0
1698920751.068677,15495.0
1698920751.089125,15504.0
1698920751.109573,15500.0
1698920751.1300209,15502.0
1698920751.1504688,15502.0
1698920751.1709168,15505.0
1698920751.1913645,15506.0
1698920751.2118125,15509.0
1698920751.2322605,15505.0
1698920751.2527084,15503.0
1698920751.2731562,15503.0
1698920751.2936041,15503.0
1698920751.314052,15500.0
1698920751.3345,15504.0
1698920751.354948,15504.0
1698920751.3753958,15510.0
1698920751.3958437,15515.0
1698920751.4162915,15515.0
1698920751.4367394,15516.0
1698920751.4571874,15517.0
1698920751.4776354,15516.0
1698920751.4980834,15497.0
1698920751.5185313,15493.0
1698920751.5389793,15489.0
1698920751.559427,15491.0
1698920751.579875,15490.0
1698920751.600323,15494.0
1698920751.6207707,15498.0
1698920751.6412187,15498.0
1698920751.6616666,15506.0
1698920751.6821146,15504.0
1698920751.7025626,15507.0
1698920751.7230105,15508.0
1698920751.7434585,15513.0
1698920751.7639062,15512.0
1698920751.7843542,15510.0
1698920751.804802,15514.0
1698920751.82525,15515.0
1698920751.8456979,15525.0
1698920751.8661458,15526.0
1698920751.8865938,15525.0
1698920751.9070415,15527.0
1698920751.9274895,15523.0
1698920751.9479375,15524.0
1698920751.9683855,15519.0
1698920751.9888332,15519.0
1698920752.0092812,15522.0
1698920752.0297294,15520.0
1698920752.050177,15523.0
1698920752.070625,15526.0
1698920752.091073,15516.0
1698920752.1115208,15513.0
1698920752.1319687,15516.0
1698920752.1524167,15516.0
1698920752.1728644,15513.0
1698920752.1933124,15514.0
1698920752.2137606,15511.0
1698920752.2342086,15511.0
1698920752.2546563,15502.0
1698920752.2751043,15498.0
1698920752.295552,15490.0
1698920752.336448,15479.0
1698920752.3568957,15477.0
1698920752.3773437,15471.0
1698920752.3977914,15472.0
1698920752.4182396,15470.0
1698920752.4386876,15468.0
1698920752.4591355,15475.0
1698920752.4795833,15482.0
1698920752.5000312,15483.0
1698920752.5204792,15491.0
1698920752.540927,15500.0
1698920752.561375,15511.0
1698920752.581823,15514.0
1698920752.6022708,15523.0
1698920752.6227188,15520.0
1698920752.6431668,15517.0
1698920752.6636145,15520.0
1698920752.6840625,15512.0
1698920752.7045105,15517.0
1698920752.7249584,15533.0
1698920752.7454062,15523.0
1698920752.7658544,15509.0
1698920752.786302,15494.0
1698920752.80675,15487.0
1698920752.827198,15486.0
1698920752.8476458,15493.0
1698920752.8680937,15484.0
1698920752.8885415,15487.0
1698920752.9089894,15484.0
1698920752.9294374,15492.0
1698920752.9498856,15497.0
1698920752.9703333,15499.0
1698920752.9907813,15492.0
1698920753.0112293,15495.0
1698920753.031677,15492.0
1698920753.052125,15490.0
1698920753.072573,15492.0
1698920753.0930207,15486.0
1698920753.1134686,15489.0
1698920753.1339169,15492.0
1698920753.1543646,15489.0
1698920753.1748126,15486.0
1698920753.1952605,15480.0
1698920753.2157085,15483.0
1698920753.2361562,15476.0
1698920753.2566042,15476.0
1698920753.277052,15470.0
1698920753.2975,15475.0
1698920753.317948,15474.0
1698920753.3383958,15476.0
1698920753.3588438,15466.0
1698920753.3792915,15469.0
1698920753.3997395,15469.0
1698920753.4201875,15468.0
1698920753.4406354,15468.0
1698920753.4610832,15469.0
1698920753.4815311,15476.0
1698920753.5019794,15477.0
1698920753.522427,15480.0
1698920753.542875,15483.0
1698920753.563323,15484.0
1698920753.5837708,15489.0
1698920753.6042187,15488.0
1698920753.6246667,15493.0
1698920753.6451144,15496.0
1698920753.6655624,15499.0
1698920753.6860106,15505.0
1698920753.7064586,15502.0
1698920753.7269063,15506.0
1698920753.7473543,15504.0
1698920753.767802,15498.0
1698920753.78825,15496.0
1698920753.808698,15500.0
1698920753.8291457,15499.0
1698920753.8495936,15507.0
1698920753.8700416,15510.0
1698920753.8904896,15515.0
1698920753.9109375,15508.0
1698920753.9313855,15507.0
1698920753.9518332,15496.0
1698920753.9722812,15502.0
1698920753.9927292,15501.0
1698920754.013177,15495.0
1698920754.033625,15514.0
1698920754.054073,15494.0
1698920754.0745208,15497.0
1698920754.0949688,15494.0
1698920754.1154168,15481.0
1698920754.1358645,15482.0
1698920754.1563125,15486.0
1698920754.1767604,15481.0
1698920754.1972084,15476.0
1698920754.2176561,15477.0
1698920754.2381043,15469.0
1698920754.258552,15474.0
1698920754.299448,15477.0
1698920754.3198957,15479.0
1698920754.3403437,15486.0
1698920754.3607914,15496.0
1698920754.3812394,15504.0
1698920754.4016874,15508.0
1698920754.4221356,15516.0
1698920754.4425833,15517.0
1698920754.4630313,15515.0
1698920754.4834793,15510.0
1698920754.503927,15512.0
1698920754.524375,15505.0
1698920754.544823,15504.0
1698920754.5652707,15497.0
1698920754.5857186,15491.0
1698920754.6061668,15485.0
1698920754.6266146,15480.0
1698920754.6470625,15480.0
1698920754.6675105,15480.0
1698920754.6879585,15487.0
1698920754.7084062,15478.0
1698920754.7288542,15490.0
1698920754.749302,15488.0
1698920754.76975,15488.0
1698920754.790198,15492.0
1698920754.8106458,15495.0
1698920754.8310938,15500.0
1698920754.8515415,15499.0
1698920754.8719895,15500.0
1698920754.8924375,15503.0
1698920754.9128854,15500.0
1698920754.9333332,15504.0
1698920754.9537814,15509.0
1698920754.9742293,15506.0
1698920754.994677,15497.0
1698920755.015125,15489.0
1698920755.035573,15487.0
1698920755.0560207,15487.0
1698920755.0764687,15483.0
1698920755.0969167,15487.0
1698920755.1173644,15486.0
1698920755.1378126,15484.0
1698920755.1582606,15477.0
1698920755.1787086,15471.0
1698920755.1991563,15476.0
1698920755.2196043,15476.0
1698920755.240052,15475.0
1698920755.2605,15485.0
1698920755.280948,15484.0
1698920755.3013957,15494.0
1698920755.3218439,15499.0
1698920755.3422916,15496.0
1698920755.3627396,15483.0
1698920755.3831875,15480.0
1698920755.4036355,15481.0
1698920755.4240832,15488.0
1698920755.4445312,15491.0
1698920755.4649792,15492.0
1698920755.485427,15496.0
1698920755.505875,15504.0
1698920755.526323,15504.0
1698920755.5467708,15506.0
1698920755.5672188,15506.0
1698920755.5876667,15510.0
1698920755.6081145,15503.0
1698920755.6285625,15510.0
1698920755.6490104,15525.0
1698920755.6694584,15529.0
1698920755.6899064,15534.0
1698920755.7103543,15536.0
1698920755.730802,15529.0
1698920755.75125,15525.0
1698920755.771698,15519.0
1698920755.7921457,15518.0
1698920755.8125937,15518.0
1698920755.8330414,15509.0
1698920755.8534894,15516.0
1698920755.8739376,15508.0
1698920755.8943856,15501.0
1698920755.9148333,15502.0
1698920755.9352813,15500.0
1698920755.9557292,15497.0
1698920755.976177,15496.0
1698920755.996625,15497.0
1698920756.017073,15491.0
1698920756.0375206,15477.0
1698920756.0579689,15478.0
1698920756.0784168,15474.0
1698920756.0988646,15478.0
1698920756.1193125,15471.0
1698920756.1397605,15470.0
1698920756.1602085,15471.0
1698920756.1806562,15466.0
1698920756.2011042,15460.0
1698920756.221552,15469.0
1698920756.262448,15458.0
1698920756.2828958,15463.0
1698920756.3033438,15465.0
1698920756.3237915,15466.0
1698920756.3442395,15461.0
1698920756.3646874,15462.0
1698920756.3851354,15462.0
1698920756.4055831,15455.0
1698920756.4260314,15453.0
1698920756.4464793,15452.0
1698920756.466927,15449.0
1698920756.487375,15455.0
1698920756.507823,15456.0
1698920756.5282707,15466.0
1698920756.5487187,15473.0
1698920756.5691667,15475.0
1698920756.5896144,15481.0
1698920756.6100626,15500.0
1698920756.6305106,15493.0
1698920756.6509585,15487.0
1698920756.6714063,15484.0
1698920756.6918542,15486.0
1698920756.712302,15490.0
1698920756.73275,15488.0
1698920756.753198,15488.0
1698920756.7736456,15492.0
1698920756.7940938,15490.0
1698920756.8145416,15484.0
1698920756.8349895,15472.0
1698920756.8554375,15466.0
1698920756.8758855,15457.0
1698920756.8963332,15452.0
1698920756.9167812,15454.0
1698920756.9372292,15456.0
1698920756.957677,15445.0
1698920756.978125,15448.0
1698920756.998573,15447.0
1698920757.0190208,15444.0
1698920757.0394688,15443.0
1698920757.0599167,15445.0
1698920757.0803645,15448.0
1698920757.1008124,15443.0
1698920757.1212604,15451.0
1698920757.1417086,15458.0
1698920757.1621563,15454.0
1698920757.1826043,15464.0
1698920757.203052,15462.0
1698920757.2235,15464.0
1698920757.243948,15458.0
1698920757.2643957,15453.0
1698920757.2848437,15463.0
1698920757.3052914,15465.0
1698920757.3257394,15463.0
1698920757.3461876,15467.0
1698920757.3666356,15461.0
1698920757.3870833,15463.0
1698920757.4075313,15458.0
1698920757.4279792,15460.0
1698920757.448427,15460.0
1698920757.468875,15464.0
1698920757.489323,15467.0
1698920757.5097709,15469.0
1698920757.5302188,15461.0
1698920757.5506668,15454.0
1698920757.5711145,15444.0
1698920757.5915625,15439.0
1698920757.6120105,15440.0
1698920757.6324584,15431.0
1698920757.6529062,15436.0
1698920757.6733541,15435.0
1698920757.693802,15444.0
1698920757.71425,15439.0
1698920757.734698,15442.0
1698920757.7551458,15437.0
1698920757.7755938,15436.0
1698920757.7960415,15439.0
1698920757.8164895,15433.0
1698920757.8369374,15424.0
1698920757.8573854,15437.0
1698920757.8778334,15444.0
1698920757.8982813,15436.0
1698920757.9187293,15433.0
1698920757.939177,15440.0
1698920757.959625,15437.0
1698920757.980073,15436.0
1698920758.0005207,15444.0
1698920758.0209687,15449.0
1698920758.0414166,15451.0
1698920758.0618646,15454.0
1698920758.0823126,15460.0
1698920758.1027606,15463.0
1698920758.1232085,15462.0
1698920758.1436563,15460.0
1698920758.1641042,15458.0
1698920758.184552,15456.0
1698920758.225448,15460.0
1698920758.2458959,15457.0
1698920758.2663438,15465.0
1698920758.2867916,15468.0
1698920758.3072395,15472.0
1698920758.3276875,15472.0
1698920758.3481355,15474.0
1698920758.3685832,15471.0
1698920758.3890312,15470.0
1698920758.4094791,15478.0
1698920758.429927,15476.0
1698920758.450375,15480.0
1698920758.470823,15479.0
1698920758.4912708,15473.0
1698920758.5117188,15474.0
1698920758.5321667,15473.0
1698920758.5526145,15473.0
1698920758.5730624,15468.0
1698920758.5935104,15478.0
1698920758.6139586,15465.0
1698920758.6344063,15467.0
1698920758.6548543,15459.0
1698920758.675302,15452.0
1698920758.69575,15447.0
1698920758.716198,15449.0
1698920758.7366457,15449.0
1698920758.7570937,15453.0
1698920758.7775414,15446.0
1698920758.7979896,15443.0
1698920758.8184376,15432.0
1698920758.8388855,15427.0
1698920758.8593333,15420.0
1698920758.8797812,15417.0
1698920758.9002292,15419.0
1698920758.920677,15419.0
1698920758.941125,15422.0
1698920758.961573,15422.0
1698920758.9820209,15426.0
1698920759.0024688,15425.0
1698920759.0229168,15425.0
1698920759.0433645,15416.0
1698920759.0638125,15420.0
1698920759.0842605,15409.0
1698920759.1047084,15411.0
1698920759.1251562,15415.0
1698920759.1456041,15422.0
1698920759.166052,15435.0
1698920759.1865,15439.0
1698920759.206948,15434.0
1698920759.2273958,15442.0
1698920759.2478437,15445.0
1698920759.2682915,15451.0
1698920759.2887394,15453.0
1698920759.3091874,15463.0
1698920759.3296354,15458.0
1698920759.3500834,15470.0
1698920759.3705313,15478.0
1698920759.3909793,15482.0
1698920759.411427,15484.0
1698920759.431875,15484.0
1698920759.452323,15476.0
1698920759.4727707,15468.0
1698920759.4932187,15466.0
1698920759.5136666,15464.0
1698920759.5341146,15455.0
1698920759.5545626,15449.0
1698920759.5750105,15439.0
1698920759.5954585,15438.0
1698920759.6159062,15429.0
1698920759.6363542,15423.0
1698920759.656802,15422.0
1698920759.67725,15419.0
1698920759.697698,15426.0
1698920759.7181458,15422.0
1698920759.7385938,15426.0
1698920759.7590415,15417.0
1698920759.7794895,15422.0
1698920759.7999375,15423.0
1698920759.8203855,15427.0
1698920759.8408332,15433.0
1698920759.8612812,15441.0
1698920759.8817294,15452.0
1698920759.902177,15459.0
1698920759.922625,15465.0
1698920759.943073,15462.0
1698920759.9635208,15468.0
1698920759.9839687,15466.0
1698920760.0044167,15468.0
1698920760.0248644,15466.0
1698920760.0453124,15456.0
1698920760.0657606,15448.0
1698920760.0862086,15442.0
1698920760.1066563,15434.0
1698920760.1271043,15434.0
1698920760.147552,15433.0
1698920760.188448,15437.0
1698920760.2088957,15435.0
1698920760.2293437,15438.0
1698920760.2497916,15445.0
1698920760.2702396,15445.0
1698920760.2906876,15441.0
1698920760.3111355,15444.0
1698920760.3315833,15439.0
1698920760.3520312,15439.0
1698920760.3724792,15454.0
1698920760.392927,15450.0
1698920760.413375,15444.0
1698920760.433823,15445.0
1698920760.4542708,15447.0
1698920760.4747188,15432.0
1698920760.4951668,15418.0
1698920760.5156145,15409.0
1698920760.5360625,15411.0
1698920760.5565104,15412.0
1698920760.5769584,15415.0
1698920760.5974061,15407.0
1698920760.6178544,15401.0
1698920760.638302,15398.0
1698920760.65875,15379.0
1698920760.679198,15370.0
1698920760.6996458,15366.0
1698920760.7200937,15362.0
1698920760.7405415,15365.0
1698920760.7609894,15356.0
1698920760.7814374,15360.0
1698920760.8018856,15354.0
1698920760.8223333,15362.0
1698920760.8427813,15360.0
1698920760.8632293,15360.0
1698920760.883677,15363.0
1698920760.904125,15371.0
1698920760.924573,15371.0
1698920760.9450207,15373.0
1698920760.9654686,15377.0
1698920760.9859169,15381.0
1698920761.0063646,15386.0
1698920761.0268126,15388.0
1698920761.0472605,15387.0
1698920761.0677085,15388.0
1698920761.0881562,15388.0
1698920761.1086042,15399.0
1698920761.129052,15401.0
1698920761.1495,15412.0
1698920761.169948,15415.0
1698920761.1903958,15415.0
1698920761.2108438,15416.0
1698920761.2312915,15422.0
1698920761.2517395,15425.0
1698920761.2721875,15417.0
1698920761.2926354,15411.0
1698920761.3130832,15405.0
1698920761.3335311,15392.0
1698920761.3539793,15388.0
1698920761.374427,15380.0
1698920761.394875,15369.0
1698920761.415323,15357.0
1698920761.4357708,15352.0
1698920761.4562187,15340.0
1698920761.4766667,15336.0
1698920761.4971144,15330.0
1698920761.5175624,15316.0
1698920761.5380106,15320.0
1698920761.5584586,15320.0
1698920761.5789063,15317.0
1698920761.5993543,15315.0
1698920761.619802,15319.0
1698920761.64025,15309.0
1698920761.660698,15311.0
1698920761.6811457,15310.0
1698920761.7015936,15309.0
1698920761.7220416,15274.0
1698920761.7424896,15298.0
1698920761.7629375,15261.0
1698920761.7833855,15255.0
1698920761.8038332,15240.0
1698920761.8242812,15233.0
1698920761.8447292,15221.0
1698920761.865177,15223.0
1698920761.885625,15212.0
1698920761.906073,15205.0
1698920761.9265208,15206.0
1698920761.9469688,15202.0
1698920761.9674168,15205.0
1698920761.9878645,15202.0
1698920762.0083125,15199.0
1698920762.0287604,15200.0
1698920762.0492084,15200.0
1698920762.0696561,15197.0
1698920762.0901043,15200.0
1698920762.110552,15203.0
1698920762.151448,15202.0
1698920762.1718957,15203.0
1698920762.1923437,15201.0
1698920762.2127914,15199.0
1698920762.2332394,15208.0
1698920762.2536874,15214.0
1698920762.2741356,15216.0
1698920762.2945833,15216.0
1698920762.3150313,15218.0
1698920762.3354793,15229.0
1698920762.355927,15241.0
1698920762.376375,15264.0
1698920762.396823,15277.0
1698920762.4172707,15296.0
1698920762.4377189,15307.0
1698920762.4581668,15323.0
1698920762.4786146,15336.0
1698920762.4990625,15339.0
1698920762.5195105,15349.0
1698920762.5399585,15361.0
1698920762.5604062,15375.0
1698920762.5808542,15398.0
1698920762.601302,15424.0
1698920762.62175,15441.0
1698920762.642198,15461.0
1698920762.6626458,15476.0
1698920762.6830938,15492.0
1698920762.7035415,15503.0
1698920762.7239895,15489.0
1698920762.7444375,15484.0
1698920762.7648854,15473.0
1698920762.7853332,15466.0
1698920762.8057814,15458.0
1698920762.8262293,15456.0
1698920762.846677,15468.0
1698920762.867125,15501.0
1698920762.887573,15532.0
1698920762.9080207,15566.0
1698920762.9284687,15607.0
1698920762.9489167,15633.0
1698920762.9693644,15669.0
1698920762.9898126,15702.0
1698920763.0102606,15738.0
1698920763.0307086,15779.0
1698920763.0511563,15754.0
1698920763.0716043,15803.0
1698920763.092052,15829.0
1698920763.1125,15854.0
1698920763.132948,15877.0
1698920763.1533957,15898.0
1698920763.1738439,15923.0
1698920763.1942916,15937.0
1698920763.2147396,15954.0
1698920763.2351875,15975.0
1698920763.2556355,15994.0
1698920763.2760832,16008.0
1698920763.2965312,16025.0
1698920763.3169792,16038.0
1698920763.337427,16065.0
1698920763.357875,16091.0
1698920763.378323,16112.0
1698920763.3987708,16155.0
1698920763.4192188,16186.0
1698920763.4396667,16216.0
1698920763.4601145,16235.0
1698920763.4805624,16252.0
1698920763.5010104,16264.0
1698920763.5214584,16272.0
1698920763.5419064,16279.0
1698920763.5623543,16281.0
1698920763.582802,16289.0
1698920763.60325,16292.0
1698920763.623698,16294.0
1698920763.6441457,16301.0
1698920763.6645937,16302.0
1698920763.6850414,16305.0
1698920763.7054894,16305.0
1698920763.7259376,16313.0
1698920763.7463856,16318.0
1698920763.7668333,16328.0
1698920763.7872813,16330.0
1698920763.8077292,16343.0
1698920763.828177,16362.0
1698920763.848625,16375.0
1698920763.869073,16383.0
1698920763.8895206,16387.0
1698920763.9099689,16378.0
1698920763.9304168,16368.0
1698920763.9508646,16350.0
1698920763.9713125,16329.0
1698920763.9917605,16315.0
1698920764.0122085,16305.0
1698920764.0326562,16289.0
1698920764.0531042,16287.0
1698920764.073552,16279.0
1698920764.114448,16278.0
1698920764.1348958,16273.0
1698920764.1553438,16271.0
1698920764.1757915,16255.0
1698920764.1962395,16248.0
1698920764.2166874,16239.0
1698920764.2371354,16242.0
1698920764.2575831,16235.0
1698920764.2780313,16232.0
1698920764.2984793,16230.0
1698920764.318927,16228.0
1698920764.339375,16216.0
1698920764.359823,16221.0
1698920764.3802707,16231.0
1698920764.4007187,16246.0
1698920764.4211667,16259.0
1698920764.4416144,16265.0
1698920764.4620626,16274.0
1698920764.4825106,16263.0
1698920764.5029585,16270.0
1698920764.5234063,16276.0
1698920764.5438542,16281.0
1698920764.564302,16285.0
1698920764.58475,16295.0
1698920764.605198,16303.0
1698920764.6256456,16323.0
1698920764.6460938,16334.0
1698920764.6665416,16342.0
1698920764.6869895,16366.0
1698920764.7074375,16384.0
1698920764.7278855,16395.0
1698920764.7483332,16397.0
1698920764.7687812,16397.0
1698920764.7892292,16409.0
1698920764.809677,16415.0
1698920764.830125,16425.0
1698920764.850573,16428.0
1698920764.8710208,16432.0
1698920764.8914688,16431.0
1698920764.9119167,16430.0
1698920764.9323645,16437.0
1698920764.9528124,16437.0
1698920764.9732604,16448.0
1698920764.9937086,16450.0
1698920765.0141563,16455.0
1698920765.0346043,16455.0
1698920765.055052,16457.0
1698920765.0755,16450.0
1698920765.095948,16455.0
1698920765.1163957,16446.0
1698920765.1368437,16442.0
1698920765.1572914,16439.0
1698920765.1777396,16448.0
1698920765.1981876,16453.0
1698920765.2186356,16460.0
1698920765.2390833,16466.0
1698920765.2595313,16482.0
1698920765.2799792,16500.0
1698920765.300427,16510.0
1698920765.320875,16512.0
1698920765.341323,16512.0
1698920765.3617709,16512.0
1698920765.3822188,16512.0
1698920765.4026668,16512.0
1698920765.4231145,16512.0
1698920765.4435625,16512.0
1698920765.4640105,16512.0
1698920765.4844584,16510.0
1698920765.5049062,16502.0
1698920765.5253541,16485.0
1698920765.545802,16479.0
1698920765.56625,16475.0
1698920765.586698,16469.0
1698920765.6071458,16460.0
1698920765.6275938,16446.0
1698920765.6480415,16451.0
1698920765.6684895,16457.0
1698920765.6889374,16460.0
1698920765.7093854,16448.0
1698920765.7298334,16424.0
1698920765.7502813,16409.0
1698920765.7707293,16387.0
1698920765.791177,16371.0
1698920765.811625,16361.0
1698920765.832073,16341.0
1698920765.8525207,16335.0
1698920765.8729687,16323.0
1698920765.8934166,16314.0
1698920765.9138646,16302.0
1698920765.9343126,16301.0
1698920765.9547606,16297.0
1698920765.9752085,16294.0
1698920765.9956563,16284.0
1698920766.0161042,16265.0
1698920766.036552,16258.0
1698920766.077448,16244.0
1698920766.0978959,16244.0
1698920766.1183438,16233.0
1698920766.1387916,16233.0
1698920766.1592395,16230.0
1698920766.1796875,16231.0
1698920766.2001355,16227.0
1698920766.2205832,16232.0
1698920766.2410312,16232.0
1698920766.2614791,16228.0
1698920766.281927,16225.0
1698920766.302375,16217.0
1698920766.322823,16218.0
1698920766.3432708,16212.0
1698920766.3637187,16224.0
1698920766.3841667,16231.0
1698920766.4046144,16245.0
1698920766.4250624,16252.0
1698920766.4455104,16251.0
1698920766.4659586,16244.0
1698920766.4864063,16242.0
1698920766.5068543,16236.0
1698920766.527302,16228.0
1698920766.54775,16223.0
1698920766.568198,16224.0
1698920766.5886457,16228.0
1698920766.6090937,16237.0
1698920766.6295414,16241.0
1698920766.6499896,16244.0
1698920766.6704376,16243.0
1698920766.6908855,16248.0
1698920766.7113333,16251.0
1698920766.7317812,16247.0
1698920766.7522292,16248.0
1698920766.772677,16250.0
1698920766.793125,16237.0
1698920766.813573,16229.0
1698920766.8340209,16211.0
1698920766.8544688,16204.0
1698920766.8749168,16199.0
1698920766.8953645,16178.0
1698920766.9158125,16167.0
1698920766.9362605,16153.0
1698920766.9567084,16148.0
1698920766.9771562,16141.0
1698920766.9976041,16136.0
1698920767.018052,16141.0
1698920767.0385,16152.0
1698920767.058948,16160.0
1698920767.0793958,16170.0
1698920767.0998437,16180.0
1698920767.1202915,16191.0
1698920767.1407394,16207.0
1698920767.1611874,16224.0
1698920767.1816354,16235.0
1698920767.2020833,16236.0
1698920767.2225313,16250.0
1698920767.2429793,16254.0
1698920767.263427,16260.0
1698920767.283875,16260.0
1698920767.304323,16268.0
1698920767.3247707,16271.0
1698920767.3452187,16270.0
1698920767.3656669,16273.0
1698920767.3861146,16279.0
1698920767.4065626,16282.0
1698920767.4270105,16294.0
1698920767.4474585,16305.0
1698920767.4679062,16311.0
1698920767.4883542,16329.0
1698920767.508802,16346.0
1698920767.52925,16368.0
1698920767.549698,16394.0
1698920767.5701458,16419.0
1698920767.5905938,16434.0
1698920767.6110415,16443.0
1698920767.6314895,16444.0
1698920767.6519375,16441.0
1698920767.6723855,16439.0
1698920767.6928332,16440.0
1698920767.7132812,16444.0
1698920767.7337294,16454.0
1698920767.754177,16465.0
1698920767.774625,16469.0
1698920767.795073,16471.0
1698920767.8155208,16463.0
1698920767.8359687,16455.0
1698920767.8564167,16439.0
1698920767.8768644,16430.0
1698920767.8973124,16423.0
1698920767.9177606,16414.0
1698920767.9382086,16417.0
1698920767.9586563,16411.0
1698920767.9791043,16413.0
1698920767.999552,16426.0
1698920768.040448,16435.0
1698920768.0608957,16441.0
1698920768.0813437,16448.0
1698920768.1017916,16453.0
1698920768.1222396,16462.0
1698920768.1426876,16461.0
1698920768.1631355,16474.0
1698920768.1835833,16454.0
1698920768.2040312,16444.0
1698920768.2244792,16425.0
1698920768.244927,16414.0
1698920768.265375,16419.0
1698920768.285823,16422.0
1698920768.3062708,16428.0
1698920768.3267188,16427.0
1698920768.3471668,16420.0
1698920768.3676145,16422.0
1698920768.3880625,16416.0
1698920768.4085104,16415.0
1698920768.4289584,16412.0
1698920768.4494061,16406.0
1698920768.4698544,16407.0
1698920768.490302,16394.0
1698920768.51075,16385.0
1698920768.531198,16371.0
1698920768.5516458,16362.0
1698920768.5720937,16342.0
1698920768.5925415,16337.0
1698920768.6129894,16324.0
1698920768.6334374,16318.0
1698920768.6538856,16316.0
1698920768.6743333,16318.0
1698920768.6947813,16306.0
1698920768.7152293,16310.0
1698920768.735677,16310.0
1698920768.756125,16316.0
1698920768.776573,16327.0
1698920768.7970207,16334.0
1698920768.8174686,16348.0
1698920768.8379169,16357.0
1698920768.8583646,16372.0
1698920768.8788126,16369.0
1698920768.8992605,16365.0
1698920768.9197085,16359.0
1698920768.9401562,16364.0
1698920768.9606042,16367.0
1698920768.981052,16377.0
1698920769.0015,16385.0
1698920769.021948,16395.0
1698920769.0423958,16395.0
1698920769.0628438,16402.0
1698920769.0832915,16417.0
1698920769.1037395,16430.0
1698920769.1241875,16445.0
1698920769.1446354,16452.0
1698920769.1650832,16470.0
1698920769.1855311,16475.0
1698920769.2059793,16450.0
1698920769.226427,16427.0
1698920769.246875,16403.0
1698920769.267323,16379.0
1698920769.2877707,16357.0
1698920769.3082187,16335.0
1698920769.3286667,16311.0
1698920769.3491144,16302.0
1698920769.3695624,16296.0
1698920769.3900106,16292.0
1698920769.4104586,16282.0
1698920769.4309063,16278.0
1698920769.4513543,16260.0
1698920769.471802,16238.0
1698920769.49225,16220.0
1698920769.512698,16206.0
1698920769.5331457,16201.0
1698920769.5535936,16197.0
1698920769.5740416,16182.0
1698920769.5944896,16171.0
1698920769.6149375,16172.0
1698920769.6353855,16174.0
1698920769.6558332,16179.0
1698920769.6762812,16189.0
1698920769.6967292,16193.0
1698920769.717177,16202.0
1698920769.737625,16201.0
1698920769.758073,16203.0
1698920769.7785208,16195.0
1698920769.7989688,16193.0
1698920769.8194168,16194.0
1698920769.8398645,16196.0
1698920769.8603125,16197.0
1698920769.8807604,16201.0
1698920769.9012084,16205.0
1698920769.9216561,16214.0
1698920769.9421043,16222.0
1698920769.962552,16229.0
1698920770.003448,16249.0
1698920770.0238957,16254.0
1698920770.0443437,16268.0
1698920770.0647914,16275.0
1698920770.0852394,16295.0
1698920770.1056876,16315.0
1698920770.1261356,16330.0
1698920770.1465833,16335.0
1698920770.1670313,16347.0
1698920770.1874793,16355.0
1698920770.207927,16359.0
1698920770.228375,16361.0
1698920770.248823,16370.0
1698920770.2692707,16366.0
1698920770.2897189,16368.0
1698920770.3101668,16361.0
1698920770.3306146,16356.0
1698920770.3510625,16351.0
1698920770.3715105,16338.0
1698920770.3919585,16333.0
1698920770.4124062,16322.0
1698920770.4328542,16317.0
1698920770.453302,16306.0
1698920770.47375,16288.0
1698920770.494198,16266.0
1698920770.5146458,16244.0
1698920770.5350938,16223.0
1698920770.5555415,16206.0
1698920770.5759895,16192.0
1698920770.5964375,16185.0
1698920770.6168854,16174.0
1698920770.6373332,16178.0
1698920770.6577814,16183.0
1698920770.6782293,16183.0
1698920770.698677,16184.0
1698920770.719125,16187.0
1698920770.739573,16177.0
1698920770.7600207,16160.0
1698920770.7804687,16160.0
1698920770.8009167,16157.0
1698920770.8213644,16151.0
1698920770.8418126,16141.0
1698920770.8622606,16140.0
1698920770.8827085,16137.0
1698920770.9031563,16132.0
1698920770.9236042,16123.0
1698920770.944052,16120.0
1698920770.9645,16122.0
1698920770.984948,16122.0
1698920771.0053957,16115.0
1698920771.0258439,16123.0
1698920771.0462916,16126.0
1698920771.0667396,16126.0
1698920771.0871875,16135.0
1698920771.1076355,16144.0
1698920771.1280832,16146.0
1698920771.1485312,16160.0
1698920771.1689792,16160.0
1698920771.189427,16167.0
1698920771.209875,16166.0
1698920771.230323,16168.0
1698920771.2507708,16177.0
1698920771.2712188,16177.0
1698920771.2916667,16182.0
1698920771.3121145,16184.0
1698920771.3325624,16178.0
1698920771.3530104,16182.0
1698920771.3734584,16184.0
1698920771.3939064,16183.0
1698920771.4143543,16191.0
1698920771.434802,16192.0
1698920771.45525,16193.0
1698920771.475698,16182.0
1698920771.4961457,16179.0
1698920771.5165937,16171.0
1698920771.5370414,16161.0
1698920771.5574894,16151.0
1698920771.5779376,16143.0
1698920771.5983856,16139.0
1698920771.6188333,16134.0
1698920771.6392813,16121.0
1698920771.6597292,16115.0
1698920771.680177,16108.0
1698920771.700625,16100.0
1698920771.721073,16093.0
1698920771.7415206,16096.0
1698920771.7619689,16101.0
1698920771.7824168,16109.0
1698920771.8028646,16118.0
1698920771.8233125,16119.0
1698920771.8437605,16119.0
1698920771.8642085,16116.0
1698920771.8846562,16119.0
1698920771.9051042,16129.0
1698920771.925552,16125.0
1698920771.966448,16141.0
1698920771.9868958,16159.0
1698920772.0073438,16163.0
1698920772.0277915,16172.0
1698920772.0482395,16178.0
1698920772.0686874,16182.0
1698920772.0891354,16194.0
1698920772.1095831,16208.0
1698920772.1300313,16221.0
1698920772.1504793,16235.0
1698920772.170927,16253.0
1698920772.191375,16267.0
1698920772.211823,16280.0
1698920772.2322707,16299.0
1698920772.2527187,16311.0
1698920772.2731667,16330.0
1698920772.2936144,16345.0
1698920772.3140626,16353.0
1698920772.3345106,16365.0
1698920772.3549585,16377.0
1698920772.3754063,16385.0
1698920772.3958542,16401.0
1698920772.416302,16414.0
1698920772.43675,16420.0
1698920772.457198,16429.0
1698920772.4776456,16434.0
1698920772.4980938,16440.0
1698920772.5185416,16450.0
1698920772.5389895,16452.0
1698920772.5594375,16461.0
1698920772.5798855,16471.0
1698920772.6003332,16481.0
1698920772.6207812,16491.0
1698920772.6412292,16505.0
1698920772.661677,16509.0
1698920772.682125,16512.0
1698920772.702573,16512.0
1698920772.7230208,16512.0
1698920772.7434688,16512.0
1698920772.7639167,16512.0
1698920772.7843645,16512.0
1698920772.8048124,16512.0
1698920772.8252604,16512.0
1698920772.8457086,16512.0
1698920772.8661563,16499.0
1698920772.8866043,16488.0
1698920772.907052,16482.0
1698920772.9275,16476.0
1698920772.947948,16460.0
1698920772.9683957,16453.0
1698920772.9888437,16443.0
1698920773.0092914,16436.0
1698920773.0297396,16426.0
1698920773.0501876,16421.0
1698920773.0706356,16411.0
1698920773.0910833,16399.0
1698920773.1115313,16393.0
1698920773.1319792,16387.0
1698920773.152427,16379.0
1698920773.172875,16372.0
1698920773.193323,16367.0
1698920773.2137709,16354.0
1698920773.2342188,16347.0
1698920773.2546668,16333.0
1698920773.2751145,16328.0
1698920773.2955625,16332.0
1698920773.3160105,16313.0
1698920773.3364584,16304.0
1698920773.3569062,16298.0
1698920773.3773541,16292.0
1698920773.397802,16286.0
1698920773.41825,16278.0
1698920773.438698,16275.0
1698920773.4591458,16270.0
1698920773.4795938,16263.0
1698920773.5000415,16260.0
1698920773.5204895,16259.0
1698920773.5409374,16259.0
1698920773.5613854,16253.0
1698920773.5818334,16251.0
1698920773.6022813,16246.0
1698920773.6227293,16242.0
1698920773.643177,16236.0
1698920773.663625,16232.0
1698920773.684073,16231.0
1698920773.7045207,16222.0
1698920773.7249687,16222.0
1698920773.7454166,16220.0
1698920773.7658646,16226.0
1698920773.7863126,16231.0
1698920773.8067605,16236.0
1698920773.8272085,16238.0
1698920773.8476562,16238.0
1698920773.8681042,16239.0
1698920773.888552,16240.0
1698920773.929448,16210.0
1698920773.9498959,16188.0
1698920773.9703438,16150.0
1698920773.9907916,16110.0
1698920774.0112395,16070.0
1698920774.0316875,16029.0
1698920774.0521355,15989.0
1698920774.0725832,15957.0
1698920774.0930312,15915.0
1698920774.1134791,15884.0
1698920774.133927,15847.0
1698920774.154375,15826.0
1698920774.174823,15804.0
1698920774.1952708,15778.0
1698920774.2157187,15749.0
1698920774.2361667,15731.0
1698920774.2566144,15706.0
1698920774.2770624,15677.0
1698920774.2975104,15647.0
1698920774.3179586,15623.0
1698920774.3384063,15606.0
1698920774.3588543,15592.0
1698920774.379302,15573.0
1698920774.39975,15551.0
1698920774.420198,15536.0
1698920774.4406457,15514.0
1698920774.4610937,15491.0
1698920774.4815414,15471.0
1698920774.5019896,15459.0
1698920774.5224376,15435.0
1698920774.5428855,15426.0
1698920774.5633333,15421.0
1698920774.5837812,15413.0
1698920774.6042292,15369.0
1698920774.624677,15378.0
1698920774.645125,15369.0
1698920774.665573,15365.0
1698920774.6860209,15353.0
1698920774.7064688,15343.0
1698920774.7269168,15341.0
1698920774.7473645,15336.0
1698920774.7678125,15322.0
1698920774.7882605,15308.0
1698920774.8087084,15305.0
1698920774.8291562,15287.0
1698920774.8496041,15272.0
1698920774.870052,15265.0
1698920774.8905,15248.0
1698920774.910948,15237.0
1698920774.9313958,15227.0
1698920774.9518437,15213.0
1698920774.9722915,15206.0
1698920774.9927394,15191.0
1698920775.0131874,15180.0
1698920775.0336356,15170.0
1698920775.0540833,15158.0
1698920775.0745313,15147.0
1698920775.0949793,15137.0
1698920775.115427,15121.0
1698920775.135875,15112.0
1698920775.156323,15099.0
1698920775.1767707,15096.0
1698920775.1972187,15083.0
1698920775.2176669,15079.0
1698920775.2381146,15067.0
1698920775.2585626,15055.0
1698920775.2790105,15051.0
1698920775.2994585,15042.0
1698920775.3199062,15031.0
1698920775.3403542,15024.0
1698920775.360802,15014.0
1698920775.38125,15008.0
1698920775.401698,14996.0
1698920775.4221458,14993.0
1698920775.4425938,14982.0
1698920775.4630415,14973.0
1698920775.4834895,14964.0
1698920775.5039375,14953.0
1698920775.5243855,14943.0
1698920775.5448332,14930.0
1698920775.5652812,14923.0
1698920775.5857294,14915.0
1698920775.606177,14898.0
1698920775.626625,14888.0
1698920775.647073,14885.0
1698920775.6675208,14870.0
1698920775.6879687,14862.0
1698920775.7084167,14859.0
1698920775.7288644,14855.0
1698920775.7493124,14843.0
1698920775.7697606,14839.0
1698920775.7902086,14842.0
1698920775.8106563,14830.0
1698920775.8311043,14827.0
1698920775.851552,14821.0
1698920775.892448,14795.0
1698920775.9128957,14783.0
1698920775.9333436,14782.0
1698920775.9537916,14778.0
1698920775.9742396,14766.0
1698920775.9946876,14759.0
1698920776.0151355,14752.0
1698920776.0355833,14740.0
1698920776.0560312,14735.0
1698920776.0764792,14732.0
1698920776.096927,14719.0
1698920776.117375,14710.0
1698920776.137823,14700.0
1698920776.1582708,14696.0
1698920776.1787188,14682.0
1698920776.1991668,14673.0
1698920776.2196145,14669.0
1698920776.2400625,14656.0
1698920776.2605104,14648.0
1698920776.2809584,14639.0
1698920776.3014061,14637.0
1698920776.3218544,14629.0
1698920776.342302,14616.0
1698920776.36275,14608.0
1698920776.383198,14604.0
1698920776.4036458,14589.0
1698920776.4240937,14581.0
1698920776.4445415,14572.0
1698920776.4649894,14560.0
1698920776.4854374,14554.0
1698920776.5058856,14546.0
1698920776.5263333,14541.0
1698920776.5467813,14550.0
1698920776.5672293,14543.0
1698920776.587677,14551.0
1698920776.608125,14542.0
1698920776.628573,14543.0
1698920776.6490207,14542.0
1698920776.6694686,14544.0
1698920776.6899168,14534.0
1698920776.7103646,14542.0
1698920776.7308125,14538.0
1698920776.7512605,14539.0
1698920776.7717085,14538.0
1698920776.7921562,14537.0
1698920776.8126042,14545.0
1698920776.833052,14547.0
1698920776.8535,14555.0
1698920776.873948,14556.0
1698920776.8943958,14552.0
1698920776.9148438,14554.0
1698920776.9352915,14554.0
1698920776.9557395,14561.0
1698920776.9761875,14559.0
1698920776.9966354,14575.0
1698920777.0170832,14588.0
1698920777.0375311,14597.0
1698920777.0579793,14600.0
1698920777.078427,14600.0
1698920777.098875,14600.0
1698920777.119323,14602.0
1698920777.1397707,14608.0
1698920777.1602187,14603.0
1698920777.1806667,14592.0
1698920777.2011144,14588.0
1698920777.2215624,14584.0
1698920777.2420106,14584.0
1698920777.2624586,14574.0
1698920777.2829063,14574.0
1698920777.3033543,14578.0
1698920777.323802,14570.0
1698920777.34425,14575.0
1698920777.364698,14567.0
1698920777.3851457,14562.0
1698920777.4055936,14557.0
1698920777.4260416,14559.0
1698920777.4464896,14552.0
1698920777.4669375,14554.0
1698920777.4873855,14556.0
1698920777.5078332,14553.0
1698920777.5282812,14553.0
1698920777.5487292,14549.0
1698920777.569177,14543.0
1698920777.589625,14543.0
1698920777.610073,14540.0
1698920777.6305208,14537.0
1698920777.6509688,14534.0
1698920777.6714168,14526.0
1698920777.6918645,14525.0
1698920777.7123125,14516.0
1698920777.7327604,14515.0
1698920777.7532084,14508.0
1698920777.7736564,14508.0
1698920777.7941043,14505.0
1698920777.814552,14501.0
1698920777.855448,14485.0
1698920777.8758957,14484.0
1698920777.8963437,14485.0
1698920777.9167914,14480.0
1698920777.9372394,14484.0
1698920777.9576876,14479.0
1698920777.9781356,14478.0
1698920777.9985833,14473.0
