ts,ppg
1698415422017.3484,21104.0
1698415422037.7783,21109.0
1698415422058.2085,21107.0
1698415422078.6382,21111.0
1698415422099.068,21107.0
1698415422119.498,21119.0
1698415422139.928,21118.0
1698415422160.358,21113.0
1698415422180.7878,21125.0
1698415422201.2178,21118.0
1698415422221.6477,21128.0
1698415422242.0776,21122.0
1698415422262.5076,21126.0
1698415422282.9375,21126.0
1698415422303.3674,21124.0
1698415422323.7974,21127.0
1698415422344.2273,21113.0
1698415422364.6572,21115.0
1698415422385.0872,21112.0
1698415422405.517,21105.0
1698415422425.947,21104.0
1698415422446.377,21109.0
1698415422466.807,21102.0
1698415422487.2368,21100.0
1698415422507.6667,21092.0
1698415422528.0967,21100.0
1698415422548.5266,21099.0
1698415422568.9563,21097.0
1698415422589.3865,21098.0
1698415422609.8164,21094.0
1698415422630.246,21094.0
1698415422650.676,21098.0
1698415422671.106,21095.0
1698415422691.536,21105.0
1698415422711.9658,21100.0
1698415422732.3958,21102.0
1698415422752.8257,21107.0
1698415422773.2556,21108.0
1698415422793.6855,21112.0
1698415422814.1155,21114.0
1698415422834.5454,21122.0
1698415422854.975,21124.0
1698415422875.4053,21130.0
1698415422895.8352,21128.0
1698415422916.2651,21136.0
1698415422936.695,21139.0
1698415422957.125,21144.0
1698415422977.555,21147.0
1698415422997.9849,21154.0
1698415423018.4148,21158.0
1698415423038.8447,21160.0
1698415423059.275,21164.0
1698415423079.7046,21166.0
1698415423100.1345,21153.0
1698415423120.5645,21165.0
1698415423140.9944,21161.0
1698415423161.4243,21158.0
1698415423181.8542,21159.0
1698415423202.2842,21157.0
1698415423222.714,21154.0
1698415423243.144,21154.0
1698415423263.574,21151.0
1698415423284.004,21144.0
1698415423304.4336,21152.0
1698415423324.8635,21147.0
1698415423345.2937,21150.0
1698415423365.7234,21146.0
1698415423386.1533,21144.0
1698415423406.5833,21139.0
1698415423427.0132,21147.0
1698415423447.443,21145.0
1698415423467.873,21146.0
1698415423488.303,21147.0
1698415423508.733,21146.0
1698415423529.1628,21145.0
1698415423549.5928,21146.0
1698415423570.0227,21147.0
1698415423590.4526,21152.0
1698415423610.8826,21156.0
1698415423631.3125,21159.0
1698415423651.7424,21154.0
1698415423672.1724,21148.0
1698415423692.6023,21153.0
1698415423713.0322,21151.0
1698415423733.4622,21156.0
1698415423753.892,21160.0
1698415423774.322,21163.0
1698415423794.752,21162.0
1698415423815.182,21169.0
1698415423835.6118,21170.0
1698415423856.0415,21172.0
1698415423876.4717,21175.0
1698415423896.9016,21174.0
1698415423917.3315,21177.0
1698415423937.7617,21169.0
1698415423958.1914,21170.0
1698415423978.621,21165.0
1698415423999.051,21170.0
1698415424019.481,21169.0
1698415424039.911,21172.0
1698415424060.3408,21175.0
1698415424080.7708,21177.0
1698415424101.2007,21177.0
1698415424121.6306,21183.0
1698415424142.0603,21182.0
1698415424162.4905,21189.0
1698415424182.9204,21192.0
1698415424203.3503,21194.0
1698415424223.7805,21197.0
1698415424244.2102,21199.0
1698415424264.64,21200.0
1698415424285.07,21203.0
1698415424305.5,21210.0
1698415424325.93,21214.0
1698415424346.36,21211.0
1698415424366.7898,21217.0
1698415424387.2195,21216.0
1698415424407.6497,21223.0
1698415424428.0796,21228.0
1698415424448.5095,21232.0
1698415424468.9397,21240.0
1698415424489.3694,21245.0
1698415424509.7993,21243.0
1698415424530.2292,21244.0
1698415424550.6592,21251.0
1698415424571.089,21253.0
1698415424591.519,21255.0
1698415424611.949,21252.0
1698415424632.379,21259.0
1698415424652.8086,21258.0
1698415424673.2383,21261.0
1698415424693.6685,21271.0
1698415424714.0984,21265.0
1698415424734.5283,21264.0
1698415424754.9585,21261.0
1698415424775.3882,21262.0
1698415424795.818,21256.0
1698415424816.248,21263.0
1698415424836.678,21259.0
1698415424857.108,21262.0
1698415424877.5378,21261.0
1698415424897.9678,21257.0
1698415424918.3977,21260.0
1698415424938.8276,21257.0
1698415424959.2576,21258.0
1698415424979.6875,21255.0
1698415425000.1174,21261.0
1698415425020.5474,21256.0
1698415425040.9773,21253.0
1698415425061.4072,21259.0
1698415425081.8372,21257.0
1698415425102.267,21252.0
1698415425122.697,21261.0
1698415425143.127,21261.0
1698415425163.557,21260.0
1698415425183.9868,21258.0
1698415425204.4167,21261.0
1698415425224.8467,21267.0
1698415425245.2766,21266.0
1698415425265.7063,21266.0
1698415425286.1365,21268.0
1698415425306.5664,21277.0
1698415425326.996,21279.0
1698415425347.426,21273.0
1698415425367.856,21281.0
1698415425388.286,21282.0
1698415425408.7158,21292.0
1698415425429.1458,21297.0
1698415425449.5757,21295.0
1698415425470.0056,21291.0
1698415425490.4355,21282.0
1698415425510.8655,21277.0
1698415425531.2954,21275.0
1698415425551.725,21271.0
1698415425572.1553,21264.0
1698415425592.5852,21254.0
1698415425613.0151,21254.0
1698415425633.445,21251.0
1698415425653.875,21249.0
1698415425674.305,21247.0
1698415425694.7349,21247.0
1698415425715.1648,21242.0
1698415425735.5947,21239.0
1698415425756.025,21230.0
1698415425776.4546,21227.0
1698415425796.8845,21217.0
1698415425817.3145,21210.0
1698415425837.7444,21200.0
1698415425858.1743,21190.0
1698415425878.6042,21184.0
1698415425899.0342,21188.0
1698415425919.464,21184.0
1698415425939.894,21184.0
1698415425960.324,21190.0
1698415425980.754,21195.0
1698415426001.1836,21203.0
1698415426021.6135,21206.0
1698415426042.0437,21216.0
1698415426062.4734,21222.0
1698415426082.9033,21221.0
1698415426103.3333,21235.0
1698415426123.7632,21243.0
1698415426144.193,21234.0
1698415426164.623,21241.0
1698415426185.053,21237.0
1698415426205.483,21234.0
1698415426225.9128,21234.0
1698415426246.3428,21233.0
1698415426266.7727,21238.0
1698415426287.2026,21242.0
1698415426307.6326,21246.0
1698415426328.0625,21260.0
1698415426348.4924,21261.0
1698415426368.9224,21270.0
1698415426389.3523,21278.0
1698415426409.7822,21287.0
1698415426430.2122,21290.0
1698415426450.642,21291.0
1698415426471.072,21291.0
1698415426491.502,21293.0
1698415426511.932,21288.0
1698415426532.3618,21286.0
1698415426552.7915,21290.0
1698415426573.2217,21293.0
1698415426593.6516,21303.0
1698415426614.0815,21309.0
1698415426634.5117,21318.0
1698415426654.9414,21326.0
1698415426675.371,21336.0
1698415426695.801,21346.0
1698415426716.231,21361.0
1698415426736.661,21369.0
1698415426757.0908,21378.0
1698415426777.5208,21384.0
1698415426797.9507,21373.0
1698415426818.3806,21380.0
1698415426838.8103,21385.0
1698415426859.2405,21388.0
1698415426879.6704,21389.0
1698415426900.1003,21391.0
1698415426920.5305,21395.0
1698415426940.9602,21385.0
1698415426961.39,21395.0
1698415426981.82,21400.0
1698415427002.25,21395.0
1698415427022.68,21395.0
1698415427043.11,21392.0
1698415427063.5398,21392.0
1698415427083.9695,21393.0
1698415427104.3997,21387.0
1698415427124.8296,21388.0
1698415427145.2595,21388.0
1698415427165.6897,21374.0
1698415427186.1194,21373.0
1698415427206.5493,21368.0
1698415427226.9792,21357.0
1698415427247.4092,21356.0
1698415427267.839,21347.0
1698415427288.269,21341.0
1698415427308.699,21332.0
1698415427329.129,21327.0
1698415427349.5586,21324.0
1698415427369.9883,21315.0
1698415427390.4185,21306.0
1698415427410.8484,21309.0
1698415427431.2783,21307.0
1698415427451.7085,21304.0
1698415427472.1382,21304.0
1698415427492.568,21303.0
1698415427512.998,21296.0
1698415427533.428,21297.0
1698415427553.858,21291.0
1698415427574.2878,21294.0
1698415427594.7178,21295.0
1698415427615.1477,21292.0
1698415427635.5776,21294.0
1698415427656.0076,21299.0
1698415427676.4375,21305.0
1698415427696.8674,21318.0
1698415427717.2974,21329.0
1698415427737.7273,21345.0
1698415427758.1572,21356.0
1698415427778.5872,21370.0
1698415427799.017,21381.0
1698415427819.447,21392.0
1698415427839.877,21404.0
1698415427860.307,21407.0
1698415427880.7368,21415.0
1698415427901.1667,21415.0
1698415427921.5967,21415.0
1698415427942.0266,21411.0
1698415427962.4563,21412.0
1698415427982.8865,21405.0
1698415428003.3164,21397.0
1698415428023.746,21395.0
1698415428044.176,21387.0
1698415428064.606,21381.0
1698415428085.036,21374.0
1698415428105.4658,21375.0
1698415428125.8958,21369.0
1698415428146.3257,21365.0
1698415428166.7556,21363.0
1698415428187.1855,21366.0
1698415428207.6155,21365.0
1698415428228.0454,21358.0
1698415428248.475,21359.0
1698415428268.9053,21358.0
1698415428289.3352,21366.0
1698415428309.7651,21369.0
1698415428330.195,21372.0
1698415428350.625,21377.0
1698415428371.055,21373.0
1698415428391.4849,21379.0
1698415428411.9148,21376.0
1698415428432.3447,21383.0
1698415428452.775,21379.0
1698415428473.2046,21378.0
1698415428493.6345,21374.0
1698415428514.0645,21374.0
1698415428534.4944,21372.0
1698415428554.9243,21368.0
1698415428575.3542,21363.0
1698415428595.7842,21364.0
1698415428616.214,21357.0
1698415428636.644,21347.0
1698415428657.074,21335.0
1698415428677.504,21329.0
1698415428697.9336,21327.0
1698415428718.3635,21318.0
1698415428738.7937,21318.0
1698415428759.2234,21308.0
1698415428779.6533,21308.0
1698415428800.0833,21302.0
1698415428820.5132,21300.0
1698415428840.943,21298.0
1698415428861.373,21295.0
1698415428881.803,21298.0
1698415428902.233,21305.0
1698415428922.6628,21312.0
1698415428943.0928,21326.0
1698415428963.5227,21330.0
1698415428983.9526,21335.0
1698415429004.3826,21345.0
1698415429024.8125,21360.0
1698415429045.2424,21370.0
1698415429065.6724,21372.0
1698415429086.1023,21381.0
1698415429106.5322,21374.0
1698415429126.9622,21376.0
1698415429147.392,21377.0
1698415429167.822,21374.0
1698415429188.252,21374.0
1698415429208.682,21371.0
1698415429229.1118,21369.0
1698415429249.5415,21364.0
1698415429269.9717,21355.0
1698415429290.4016,21346.0
1698415429310.8315,21339.0
1698415429331.2617,21329.0
1698415429351.6914,21322.0
1698415429372.121,21318.0
1698415429392.551,21314.0
1698415429412.981,21310.0
1698415429433.411,21314.0
1698415429453.8408,21299.0
1698415429474.2708,21298.0
1698415429494.7007,21300.0
1698415429515.1306,21292.0
1698415429535.5603,21304.0
1698415429555.9905,21305.0
1698415429576.4204,21306.0
1698415429596.8503,21295.0
1698415429617.2805,21294.0
1698415429637.7102,21293.0
1698415429658.14,21291.0
1698415429678.57,21285.0
1698415429699.0,21283.0
1698415429719.43,21280.0
1698415429739.86,21278.0
1698415429760.2898,21280.0
1698415429780.7195,21285.0
1698415429801.1497,21287.0
1698415429821.5796,21281.0
1698415429842.0095,21283.0
1698415429862.4397,21285.0
1698415429882.8694,21277.0
1698415429903.2993,21275.0
1698415429923.7292,21275.0
1698415429944.1592,21262.0
1698415429964.589,21263.0
1698415429985.019,21254.0
1698415430005.449,21254.0
1698415430025.879,21244.0
1698415430046.3086,21241.0
1698415430066.7383,21238.0
1698415430087.1685,21237.0
1698415430107.5984,21236.0
1698415430128.0283,21229.0
1698415430148.4585,21236.0
1698415430168.8882,21236.0
1698415430189.318,21243.0
1698415430209.748,21243.0
1698415430230.178,21246.0
1698415430250.608,21246.0
1698415430271.0378,21248.0
1698415430291.4678,21245.0
1698415430311.8977,21252.0
1698415430332.3276,21252.0
1698415430352.7576,21251.0
1698415430373.1875,21258.0
1698415430393.6174,21259.0
1698415430414.0474,21260.0
1698415430434.4773,21265.0
1698415430454.9072,21265.0
1698415430475.3372,21266.0
1698415430495.767,21267.0
1698415430516.197,21261.0
1698415430536.627,21256.0
1698415430557.057,21253.0
1698415430577.4868,21245.0
1698415430597.9167,21234.0
1698415430618.3467,21228.0
1698415430638.7766,21217.0
1698415430659.2063,21208.0
1698415430679.6365,21204.0
1698415430700.0664,21189.0
1698415430720.496,21184.0
1698415430740.926,21181.0
1698415430761.356,21174.0
1698415430781.786,21166.0
1698415430802.2158,21163.0
1698415430822.6458,21170.0
1698415430843.0757,21176.0
1698415430863.5056,21179.0
1698415430883.9355,21180.0
1698415430904.3655,21174.0
1698415430924.7954,21183.0
1698415430945.225,21192.0
1698415430965.6553,21194.0
1698415430986.0852,21194.0
1698415431006.5151,21202.0
1698415431026.945,21210.0
1698415431047.375,21207.0
1698415431067.805,21210.0
1698415431088.2349,21214.0
1698415431108.6648,21204.0
1698415431129.0947,21207.0
1698415431149.525,21209.0
1698415431169.9546,21205.0
1698415431190.3845,21202.0
1698415431210.8145,21203.0
1698415431231.2444,21193.0
1698415431251.6743,21189.0
1698415431272.1042,21174.0
1698415431292.5342,21180.0
1698415431312.964,21180.0
1698415431333.394,21179.0
1698415431353.824,21175.0
1698415431374.254,21173.0
1698415431394.6836,21175.0
1698415431415.1135,21176.0
1698415431435.5437,21172.0
1698415431455.9734,21171.0
1698415431476.4033,21181.0
1698415431496.8333,21176.0
1698415431517.2632,21184.0
1698415431537.693,21192.0
1698415431558.123,21195.0
1698415431578.553,21211.0
1698415431598.983,21218.0
1698415431619.4128,21221.0
1698415431639.8428,21232.0
1698415431660.2727,21229.0
1698415431680.7026,21244.0
1698415431701.1326,21248.0
1698415431721.5625,21251.0
1698415431741.9924,21256.0
1698415431762.4224,21257.0
1698415431782.8523,21258.0
1698415431803.2822,21256.0
1698415431823.7122,21256.0
1698415431844.142,21253.0
1698415431864.572,21256.0
1698415431885.002,21251.0
1698415431905.432,21243.0
1698415431925.8618,21238.0
1698415431946.2915,21234.0
1698415431966.7217,21226.0
1698415431987.1516,21223.0
1698415432007.5815,21226.0
1698415432028.0117,21222.0
1698415432048.4414,21222.0
1698415432068.871,21210.0
1698415432089.301,21216.0
1698415432109.731,21215.0
1698415432130.161,21214.0
1698415432150.5908,21217.0
1698415432171.0208,21225.0
1698415432191.4507,21225.0
1698415432211.8806,21222.0
1698415432232.3103,21226.0
1698415432252.7405,21222.0
1698415432273.1704,21216.0
1698415432293.6003,21222.0
1698415432314.0305,21221.0
1698415432334.4602,21224.0
1698415432354.89,21219.0
1698415432375.32,21221.0
1698415432395.75,21218.0
1698415432416.18,21223.0
1698415432436.61,21221.0
1698415432457.0398,21228.0
1698415432477.4695,21224.0
1698415432497.8997,21231.0
1698415432518.3296,21236.0
1698415432538.7595,21240.0
1698415432559.1897,21236.0
1698415432579.6194,21230.0
1698415432600.0493,21229.0
1698415432620.4792,21228.0
1698415432640.9092,21227.0
1698415432661.339,21222.0
1698415432681.769,21226.0
1698415432702.199,21221.0
1698415432722.629,21222.0
1698415432743.0586,21228.0
1698415432763.4883,21225.0
1698415432783.9185,21231.0
1698415432804.3484,21231.0
1698415432824.7783,21237.0
1698415432845.2085,21239.0
1698415432865.6382,21242.0
1698415432886.068,21247.0
1698415432906.498,21251.0
1698415432926.928,21256.0
1698415432947.358,21258.0
1698415432967.7878,21262.0
1698415432988.2178,21257.0
1698415433008.6477,21259.0
1698415433029.0776,21262.0
1698415433049.5076,21266.0
1698415433069.9375,21262.0
1698415433090.3674,21262.0
1698415433110.7974,21263.0
1698415433131.2273,21258.0
1698415433151.6572,21261.0
1698415433172.0872,21265.0
1698415433192.517,21270.0
1698415433212.947,21274.0
1698415433233.377,21268.0
1698415433253.807,21267.0
1698415433274.2368,21258.0
1698415433294.6667,21247.0
1698415433315.0967,21245.0
1698415433335.5266,21238.0
1698415433355.9563,21228.0
1698415433376.3865,21216.0
1698415433396.8164,21209.0
1698415433417.246,21202.0
1698415433437.676,21190.0
1698415433458.106,21181.0
1698415433478.536,21180.0
1698415433498.9658,21176.0
1698415433519.3958,21167.0
1698415433539.8257,21165.0
1698415433560.2556,21168.0
1698415433580.6855,21167.0
1698415433601.1155,21161.0
1698415433621.5454,21166.0
1698415433641.975,21174.0
1698415433662.4053,21180.0
1698415433682.8352,21186.0
1698415433703.2651,21200.0
1698415433723.695,21207.0
1698415433744.125,21218.0
1698415433764.555,21231.0
1698415433784.9849,21242.0
1698415433805.4148,21250.0
1698415433825.8447,21269.0
1698415433846.275,21282.0
1698415433866.7046,21296.0
1698415433887.1345,21307.0
1698415433907.5645,21317.0
1698415433927.9944,21332.0
1698415433948.4243,21339.0
1698415433968.8542,21353.0
1698415433989.2842,21352.0
1698415434009.714,21369.0
1698415434030.144,21377.0
1698415434050.574,21387.0
1698415434071.004,21397.0
1698415434091.4336,21403.0
1698415434111.8635,21407.0
1698415434132.2937,21410.0
1698415434152.7234,21418.0
1698415434173.1533,21426.0
1698415434193.5833,21436.0
1698415434214.0132,21443.0
1698415434234.443,21449.0
1698415434254.873,21452.0
1698415434275.303,21449.0
1698415434295.733,21462.0
1698415434316.1628,21461.0
1698415434336.5928,21471.0
1698415434357.0227,21472.0
1698415434377.4526,21474.0
1698415434397.8826,21477.0
1698415434418.3125,21481.0
1698415434438.7424,21486.0
1698415434459.1724,21491.0
1698415434479.6023,21494.0
1698415434500.0322,21496.0
1698415434520.4622,21498.0
1698415434540.892,21498.0
1698415434561.322,21506.0
1698415434581.752,21501.0
1698415434602.182,21502.0
1698415434622.6118,21493.0
1698415434643.0415,21491.0
1698415434663.4717,21483.0
1698415434683.9016,21473.0
1698415434704.3315,21468.0
1698415434724.7617,21458.0
1698415434745.1914,21454.0
1698415434765.621,21450.0
1698415434786.051,21435.0
1698415434806.481,21430.0
1698415434826.911,21420.0
1698415434847.3408,21418.0
1698415434867.7708,21414.0
1698415434888.2007,21403.0
1698415434908.6306,21398.0
1698415434929.0603,21391.0
1698415434949.4905,21389.0
1698415434969.9204,21392.0
1698415434990.3503,21382.0
1698415435010.7805,21391.0
1698415435031.2102,21392.0
1698415435051.64,21387.0
1698415435072.07,21386.0
1698415435092.5,21381.0
1698415435112.93,21387.0
1698415435133.36,21382.0
1698415435153.7898,21385.0
1698415435174.2195,21382.0
1698415435194.6497,21384.0
1698415435215.0796,21378.0
1698415435235.5095,21380.0
1698415435255.9397,21378.0
1698415435276.3694,21374.0
1698415435296.7993,21379.0
1698415435317.2292,21368.0
1698415435337.6592,21369.0
1698415435358.089,21363.0
1698415435378.519,21357.0
1698415435398.949,21357.0
1698415435419.379,21357.0
1698415435439.8086,21348.0
1698415435460.2383,21346.0
1698415435480.6685,21345.0
1698415435501.0984,21345.0
1698415435521.5283,21341.0
1698415435541.9585,21344.0
1698415435562.3882,21341.0
1698415435582.818,21337.0
1698415435603.248,21336.0
1698415435623.678,21335.0
1698415435644.108,21333.0
1698415435664.5378,21338.0
1698415435684.9678,21339.0
1698415435705.3977,21344.0
1698415435725.8276,21342.0
1698415435746.2576,21341.0
1698415435766.6875,21342.0
1698415435787.1174,21346.0
1698415435807.5474,21354.0
1698415435827.9773,21355.0
1698415435848.4072,21355.0
1698415435868.8372,21354.0
1698415435889.267,21356.0
1698415435909.697,21353.0
1698415435930.127,21358.0
1698415435950.557,21350.0
1698415435970.9868,21354.0
1698415435991.4167,21353.0
1698415436011.8467,21350.0
1698415436032.2766,21342.0
1698415436052.7063,21334.0
1698415436073.1365,21326.0
1698415436093.5664,21310.0
1698415436113.996,21306.0
1698415436134.426,21297.0
1698415436154.856,21298.0
1698415436175.286,21284.0
1698415436195.7158,21282.0
1698415436216.1458,21277.0
1698415436236.5757,21275.0
1698415436257.0056,21272.0
1698415436277.4355,21268.0
1698415436297.8655,21266.0
1698415436318.2954,21270.0
1698415436338.725,21266.0
1698415436359.1553,21275.0
1698415436379.5852,21268.0
1698415436400.0151,21266.0
1698415436420.445,21267.0
1698415436440.875,21269.0
1698415436461.305,21264.0
1698415436481.7349,21266.0
1698415436502.1648,21268.0
1698415436522.5947,21270.0
1698415436543.025,21271.0
1698415436563.4546,21267.0
1698415436583.8845,21267.0
1698415436604.3145,21269.0
1698415436624.7444,21272.0
1698415436645.1743,21275.0
1698415436665.6042,21276.0
1698415436686.0342,21284.0
1698415436706.464,21283.0
1698415436726.894,21276.0
1698415436747.324,21275.0
1698415436767.754,21267.0
1698415436788.1836,21256.0
1698415436808.6135,21249.0
1698415436829.0437,21235.0
1698415436849.4734,21229.0
1698415436869.9033,21229.0
1698415436890.3333,21226.0
1698415436910.7632,21221.0
1698415436931.193,21217.0
1698415436951.623,21211.0
1698415436972.053,21210.0
1698415436992.483,21213.0
1698415437012.9128,21204.0
1698415437033.3428,21200.0
1698415437053.7727,21204.0
1698415437074.2026,21206.0
1698415437094.6326,21202.0
1698415437115.0625,21205.0
1698415437135.4924,21201.0
1698415437155.9224,21206.0
1698415437176.3523,21199.0
1698415437196.7822,21203.0
1698415437217.2122,21210.0
1698415437237.642,21210.0
1698415437258.072,21211.0
1698415437278.502,21213.0
1698415437298.932,21208.0
1698415437319.3618,21216.0
1698415437339.7915,21214.0
1698415437360.2217,21217.0
1698415437380.6516,21222.0
1698415437401.0815,21225.0
1698415437421.5117,21224.0
1698415437441.9414,21233.0
1698415437462.371,21226.0
1698415437482.801,21228.0
1698415437503.231,21222.0
1698415437523.661,21213.0
1698415437544.0908,21208.0
1698415437564.5208,21209.0
1698415437584.9507,21199.0
1698415437605.3806,21198.0
1698415437625.8103,21196.0
1698415437646.2405,21185.0
1698415437666.6704,21187.0
1698415437687.1003,21186.0
1698415437707.5305,21182.0
1698415437727.9602,21180.0
1698415437748.39,21184.0
1698415437768.82,21174.0
1698415437789.25,21175.0
1698415437809.68,21173.0
1698415437830.11,21166.0
1698415437850.5398,21170.0
1698415437870.9695,21164.0
1698415437891.3997,21174.0
1698415437911.8296,21166.0
1698415437932.2595,21174.0
1698415437952.6897,21165.0
1698415437973.1194,21167.0
1698415437993.5493,21170.0
1698415438013.9792,21166.0
1698415438034.4092,21169.0
1698415438054.839,21168.0
1698415438075.269,21169.0
1698415438095.699,21170.0
1698415438116.129,21165.0
1698415438136.5586,21167.0
1698415438156.9883,21174.0
1698415438177.4185,21171.0
1698415438197.8484,21163.0
1698415438218.2783,21156.0
1698415438238.7085,21153.0
1698415438259.1382,21140.0
1698415438279.568,21137.0
1698415438299.998,21135.0
1698415438320.428,21133.0
1698415438340.858,21126.0
1698415438361.2878,21126.0
1698415438381.7178,21117.0
1698415438402.1477,21127.0
1698415438422.5776,21124.0
1698415438443.0076,21125.0
1698415438463.4375,21127.0
1698415438483.8674,21134.0
1698415438504.2974,21142.0
1698415438524.7273,21134.0
1698415438545.1572,21139.0
1698415438565.5872,21145.0
1698415438586.017,21152.0
1698415438606.447,21152.0
1698415438626.877,21156.0
1698415438647.307,21163.0
1698415438667.7368,21172.0
1698415438688.1667,21181.0
1698415438708.5967,21185.0
1698415438729.0266,21193.0
1698415438749.4563,21206.0
1698415438769.8865,21211.0
1698415438790.3164,21219.0
1698415438810.746,21231.0
1698415438831.176,21235.0
1698415438851.606,21249.0
1698415438872.036,21252.0
1698415438892.4658,21252.0
1698415438912.8958,21258.0
1698415438933.3257,21257.0
1698415438953.7556,21248.0
1698415438974.1855,21252.0
1698415438994.6155,21244.0
1698415439015.0454,21235.0
1698415439035.475,21236.0
1698415439055.9053,21231.0
1698415439076.3352,21229.0
1698415439096.7651,21233.0
1698415439117.195,21230.0
1698415439137.625,21224.0
1698415439158.055,21226.0
1698415439178.4849,21232.0
1698415439198.9148,21248.0
1698415439219.3447,21250.0
1698415439239.775,21261.0
1698415439260.2046,21275.0
1698415439280.6345,21283.0
1698415439301.0645,21296.0
1698415439321.4944,21307.0
1698415439341.9243,21306.0
1698415439362.3542,21317.0
1698415439382.7842,21322.0
1698415439403.214,21320.0
1698415439423.644,21321.0
1698415439444.074,21325.0
1698415439464.504,21317.0
1698415439484.9336,21320.0
1698415439505.3635,21319.0
1698415439525.7937,21312.0
1698415439546.2234,21317.0
1698415439566.6533,21322.0
1698415439587.0833,21318.0
1698415439607.5132,21322.0
1698415439627.943,21321.0
1698415439648.373,21319.0
1698415439668.803,21322.0
1698415439689.233,21319.0
1698415439709.6628,21311.0
1698415439730.0928,21306.0
1698415439750.5227,21294.0
1698415439770.9526,21288.0
1698415439791.3826,21281.0
1698415439811.8125,21266.0
1698415439832.2424,21255.0
1698415439852.6724,21253.0
1698415439873.1023,21242.0
1698415439893.5322,21234.0
1698415439913.9622,21237.0
1698415439934.392,21233.0
1698415439954.822,21224.0
1698415439975.252,21223.0
1698415439995.682,21216.0
1698415440016.1118,21217.0
1698415440036.5415,21214.0
1698415440056.9717,21215.0
1698415440077.4016,21210.0
1698415440097.8315,21211.0
1698415440118.2617,21206.0
1698415440138.6914,21209.0
1698415440159.121,21212.0
1698415440179.551,21210.0
1698415440199.981,21208.0
1698415440220.411,21203.0
1698415440240.8408,21205.0
1698415440261.2708,21209.0
1698415440281.7007,21209.0
1698415440302.1306,21210.0
1698415440322.5603,21218.0
1698415440342.9905,21219.0
1698415440363.4204,21225.0
1698415440383.8503,21228.0
1698415440404.2805,21233.0
1698415440424.7102,21244.0
1698415440445.14,21245.0
1698415440465.57,21254.0
1698415440486.0,21252.0
1698415440506.43,21259.0
1698415440526.86,21259.0
1698415440547.2898,21245.0
1698415440567.7195,21249.0
1698415440588.1497,21244.0
1698415440608.5796,21242.0
1698415440629.0095,21237.0
1698415440649.4397,21227.0
1698415440669.8694,21223.0
1698415440690.2993,21217.0
1698415440710.7292,21211.0
1698415440731.1592,21212.0
1698415440751.589,21207.0
1698415440772.019,21202.0
1698415440792.449,21205.0
1698415440812.879,21212.0
1698415440833.3086,21216.0
1698415440853.7383,21217.0
1698415440874.1685,21212.0
1698415440894.5984,21222.0
1698415440915.0283,21225.0
1698415440935.4585,21221.0
1698415440955.8882,21227.0
1698415440976.318,21231.0
1698415440996.748,21235.0
1698415441017.178,21238.0
1698415441037.608,21244.0
1698415441058.0378,21250.0
1698415441078.4678,21255.0
1698415441098.8977,21255.0
1698415441119.3276,21254.0
1698415441139.7576,21261.0
1698415441160.1875,21260.0
1698415441180.6174,21267.0
1698415441201.0474,21266.0
1698415441221.4773,21276.0
1698415441241.9072,21271.0
1698415441262.3372,21273.0
1698415441282.767,21265.0
1698415441303.197,21256.0
1698415441323.627,21251.0
1698415441344.057,21243.0
1698415441364.4868,21235.0
1698415441384.9167,21227.0
1698415441405.3467,21228.0
1698415441425.7766,21223.0
1698415441446.2063,21217.0
1698415441466.6365,21219.0
1698415441487.0664,21212.0
1698415441507.496,21209.0
1698415441527.926,21216.0
1698415441548.356,21205.0
1698415441568.786,21203.0
1698415441589.2158,21203.0
1698415441609.6458,21197.0
1698415441630.0757,21196.0
1698415441650.5056,21193.0
1698415441670.9355,21190.0
1698415441691.3655,21193.0
1698415441711.7954,21190.0
1698415441732.225,21179.0
1698415441752.6553,21182.0
1698415441773.0852,21184.0
1698415441793.5151,21183.0
1698415441813.945,21181.0
1698415441834.375,21181.0
1698415441854.805,21192.0
1698415441875.2349,21186.0
1698415441895.6648,21186.0
1698415441916.0947,21188.0
1698415441936.525,21183.0
1698415441956.9546,21186.0
1698415441977.3845,21171.0
1698415441997.8145,21170.0
