timestamp,ppg
1698921834.0365758,15907.0
1698921834.0571516,15905.0
1698921834.0777273,15893.0
1698921834.098303,15885.0
1698921834.1188788,15873.0
1698921834.1394546,15877.0
1698921834.1600306,15869.0
1698921834.180606,15861.0
1698921834.201182,15857.0
1698921834.2217577,15847.0
1698921834.2423332,15838.0
1698921834.2629092,15832.0
1698921834.283485,15830.0
1698921834.3040602,15819.0
1698921834.3246365,15812.0
1698921834.3452122,15802.0
1698921834.3657877,15798.0
1698921834.3863635,15788.0
1698921834.4069397,15780.0
1698921834.427515,15770.0
1698921834.4480908,15755.0
1698921834.4686668,15752.0
1698921834.4892423,15720.0
1698921834.509818,15749.0
1698921834.530394,15744.0
1698921834.5509696,15737.0
1698921834.5715454,15729.0
1698921834.5921211,15727.0
1698921834.6126971,15685.0
1698921834.6332726,15712.0
1698921834.6538484,15705.0
1698921834.6744244,15704.0
1698921834.7155757,15699.0
1698921834.7361517,15693.0
1698921834.7567272,15686.0
1698921834.777303,15688.0
1698921834.797879,15684.0
1698921834.8184545,15681.0
1698921834.8390305,15675.0
1698921834.859606,15671.0
1698921834.8801818,15669.0
1698921834.9007576,15662.0
1698921834.9213333,15658.0
1698921834.941909,15655.0
1698921834.9624848,15652.0
1698921834.9830604,15648.0
1698921835.0036364,15643.0
1698921835.0242121,15642.0
1698921835.044788,15645.0
1698921835.0653634,15642.0
1698921835.0859396,15634.0
1698921835.1065152,15632.0
1698921835.127091,15629.0
1698921835.1476667,15619.0
1698921835.1682425,15612.0
1698921835.1888182,15608.0
1698921835.209394,15597.0
1698921835.2299695,15592.0
1698921835.2505455,15591.0
1698921835.271121,15583.0
1698921835.291697,15581.0
1698921835.3122728,15576.0
1698921835.3328483,15566.0
1698921835.3534243,15568.0
1698921835.3945756,15556.0
1698921835.4151516,15555.0
1698921835.4357274,15551.0
1698921835.456303,15543.0
1698921835.476879,15536.0
1698921835.4974546,15533.0
1698921835.5180304,15533.0
1698921835.538606,15529.0
1698921835.559182,15527.0
1698921835.5797575,15524.0
1698921835.6003332,15518.0
1698921835.6209092,15517.0
1698921835.641485,15516.0
1698921835.6620603,15515.0
1698921835.6826365,15516.0
1698921835.7032123,15513.0
1698921835.7237878,15514.0
1698921835.7443635,15516.0
1698921835.7649398,15512.0
1698921835.785515,15516.0
1698921835.8060908,15509.0
1698921835.8266668,15511.0
1698921835.8472424,15509.0
1698921835.867818,15507.0
1698921835.888394,15498.0
1698921835.9089694,15499.0
1698921835.9295454,15492.0
1698921835.9501212,15485.0
1698921835.970697,15480.0
1698921835.9912727,15476.0
1698921836.0118484,15468.0
1698921836.0324242,15464.0
1698921836.0735757,15441.0
1698921836.0941515,15437.0
1698921836.1147273,15428.0
1698921836.135303,15419.0
1698921836.155879,15420.0
1698921836.1764545,15407.0
1698921836.1970305,15397.0
1698921836.217606,15390.0
1698921836.2381818,15377.0
1698921836.2587576,15379.0
1698921836.2793334,15367.0
1698921836.299909,15372.0
1698921836.3204849,15368.0
1698921836.3410604,15359.0
1698921836.3616364,15355.0
1698921836.3822122,15338.0
1698921836.402788,15325.0
1698921836.4233634,15319.0
1698921836.4439397,15315.0
1698921836.4645152,15301.0
1698921836.4850907,15296.0
1698921836.5056667,15289.0
1698921836.5262425,15289.0
1698921836.546818,15276.0
1698921836.567394,15278.0
1698921836.5879695,15273.0
1698921836.6085453,15263.0
1698921836.629121,15265.0
1698921836.649697,15255.0
1698921836.6702726,15254.0
1698921836.6908484,15249.0
1698921836.7114244,15245.0
1698921836.7525756,15239.0
1698921836.7731516,15234.0
1698921836.7937274,15232.0
1698921836.814303,15224.0
1698921836.834879,15218.0
1698921836.8554547,15220.0
1698921836.8760304,15216.0
1698921836.896606,15210.0
1698921836.917182,15205.0
1698921836.9377575,15202.0
1698921836.9583333,15195.0
1698921836.9789093,15193.0
1698921836.9994848,15186.0
1698921837.0200603,15174.0
1698921837.0406365,15175.0
1698921837.061212,15167.0
1698921837.0817878,15163.0
1698921837.1023636,15162.0
1698921837.1229396,15155.0
1698921837.143515,15148.0
1698921837.1640909,15147.0
1698921837.1846666,15146.0
1698921837.2052424,15136.0
1698921837.2258182,15140.0
1698921837.2463942,15133.0
1698921837.2669694,15132.0
1698921837.2875454,15127.0
1698921837.3081212,15131.0
1698921837.328697,15124.0
1698921837.3492727,15115.0
1698921837.3698485,15111.0
1698921837.3904243,15112.0
1698921837.4315758,15106.0
1698921837.4521515,15110.0
1698921837.4727273,15099.0
1698921837.493303,15100.0
1698921837.5138788,15102.0
1698921837.5344546,15099.0
1698921837.5550306,15090.0
1698921837.5756059,15098.0
1698921837.5961819,15110.0
1698921837.6167576,15108.0
1698921837.6373332,15106.0
1698921837.6579092,15099.0
1698921837.678485,15099.0
1698921837.6990602,15093.0
1698921837.7196364,15088.0
1698921837.7402122,15091.0
1698921837.7607877,15087.0
1698921837.7813635,15086.0
1698921837.8019397,15080.0
1698921837.8225152,15082.0
1698921837.8430908,15076.0
1698921837.8636668,15070.0
1698921837.8842425,15073.0
1698921837.904818,15066.0
1698921837.925394,15063.0
1698921837.9459696,15060.0
1698921837.9665453,15058.0
1698921837.987121,15050.0
1698921838.007697,15044.0
1698921838.0282726,15045.0
1698921838.0488484,15037.0
1698921838.0694244,15036.0
1698921838.1105757,15030.0
1698921838.1311517,15024.0
1698921838.1517272,15023.0
1698921838.172303,15014.0
1698921838.192879,15011.0
1698921838.2134545,15007.0
1698921838.2340305,15005.0
1698921838.254606,15002.0
1698921838.2751818,15000.0
1698921838.2957575,15004.0
1698921838.3163333,15007.0
1698921838.3369093,15014.0
1698921838.3574848,15011.0
1698921838.3780603,15010.0
1698921838.3986366,15008.0
1698921838.419212,15007.0
1698921838.4397879,14998.0
1698921838.4603636,15000.0
1698921838.4809396,14997.0
1698921838.5015152,14994.0
1698921838.522091,14995.0
1698921838.5426667,14993.0
1698921838.5632424,14985.0
1698921838.5838182,14989.0
1698921838.604394,14982.0
1698921838.6249695,14979.0
1698921838.6455455,14972.0
1698921838.666121,14967.0
1698921838.686697,14968.0
1698921838.7072728,14962.0
1698921838.7278483,14963.0
1698921838.7484243,14963.0
1698921838.7895756,14959.0
1698921838.8101516,14962.0
1698921838.8307273,14970.0
1698921838.8513029,14969.0
1698921838.8718789,14976.0
1698921838.8924546,14972.0
1698921838.9130306,14971.0
1698921838.933606,14976.0
1698921838.954182,14971.0
1698921838.9747577,14972.0
1698921838.9953332,14970.0
1698921839.0159092,14966.0
1698921839.036485,14966.0
1698921839.0570602,14971.0
1698921839.0776365,14967.0
1698921839.0982122,14971.0
1698921839.1187878,14974.0
1698921839.1393635,14978.0
1698921839.1599398,14983.0
1698921839.180515,15003.0
1698921839.2010908,15006.0
1698921839.2216668,15022.0
1698921839.2422423,15036.0
1698921839.262818,15047.0
1698921839.283394,15069.0
1698921839.3039694,15097.0
1698921839.3245454,15137.0
1698921839.3451211,15177.0
1698921839.365697,15212.0
1698921839.3862727,15250.0
1698921839.4068484,15287.0
1698921839.4274244,15303.0
1698921839.4685757,15323.0
1698921839.4891517,15333.0
1698921839.5097272,15353.0
1698921839.530303,15389.0
1698921839.550879,15425.0
1698921839.5714545,15454.0
1698921839.5920305,15482.0
1698921839.612606,15520.0
1698921839.6331818,15547.0
1698921839.6537576,15581.0
1698921839.6743333,15608.0
1698921839.694909,15636.0
1698921839.7154849,15663.0
1698921839.7360604,15690.0
1698921839.7566364,15718.0
1698921839.7772121,15739.0
1698921839.797788,15757.0
1698921839.8183634,15779.0
1698921839.8389397,15789.0
1698921839.8595152,15800.0
1698921839.8800907,15809.0
1698921839.9006667,15823.0
1698921839.9212425,15834.0
1698921839.941818,15850.0
1698921839.962394,15875.0
1698921839.9829695,15902.0
1698921840.0035455,15928.0
1698921840.024121,15962.0
1698921840.044697,16004.0
1698921840.0652728,16033.0
1698921840.0858483,16064.0
1698921840.1064243,16081.0
1698921840.1475756,16123.0
1698921840.1681516,16145.0
1698921840.1887274,16162.0
1698921840.209303,16176.0
1698921840.229879,16189.0
1698921840.2504547,16205.0
1698921840.2710304,16215.0
1698921840.291606,16213.0
1698921840.312182,16206.0
1698921840.3327575,16203.0
1698921840.3533332,16204.0
1698921840.3739092,16205.0
1698921840.3944848,16198.0
1698921840.4150603,16203.0
1698921840.4356365,16201.0
1698921840.456212,16188.0
1698921840.4767878,16176.0
1698921840.4973636,16157.0
1698921840.5179398,16135.0
1698921840.538515,16111.0
1698921840.5590909,16099.0
1698921840.5796669,16101.0
1698921840.6002424,16120.0
1698921840.6208181,16134.0
1698921840.6413941,16155.0
1698921840.6619694,16170.0
1698921840.6825454,16193.0
1698921840.7031212,16216.0
1698921840.723697,16239.0
1698921840.7442727,16257.0
1698921840.7648485,16277.0
1698921840.7854242,16282.0
1698921840.8265758,16298.0
1698921840.8471515,16312.0
1698921840.8677273,16321.0
1698921840.888303,16328.0
1698921840.9088788,16340.0
1698921840.9294546,16357.0
1698921840.9500306,16379.0
1698921840.9706059,16410.0
1698921840.9911819,16432.0
1698921841.0117576,16456.0
1698921841.0323331,16485.0
1698921841.0529091,16505.0
1698921841.073485,16512.0
1698921841.0940604,16512.0
1698921841.1146364,16512.0
1698921841.1352122,16512.0
1698921841.155788,16512.0
1698921841.1763635,16512.0
1698921841.1969397,16512.0
1698921841.2175152,16512.0
1698921841.2380908,16512.0
1698921841.2586668,16512.0
1698921841.2792425,16512.0
1698921841.299818,16512.0
1698921841.320394,16498.0
1698921841.3409696,16471.0
1698921841.3615453,16440.0
1698921841.382121,16410.0
1698921841.402697,16396.0
1698921841.4232726,16391.0
1698921841.4438484,16388.0
1698921841.4644244,16390.0
1698921841.5055757,16395.0
1698921841.5261517,16398.0
1698921841.5467272,16407.0
1698921841.567303,16421.0
1698921841.587879,16435.0
1698921841.6084547,16451.0
1698921841.6290305,16463.0
1698921841.649606,16475.0
1698921841.670182,16485.0
1698921841.6907575,16493.0
1698921841.7113333,16507.0
1698921841.7319093,16479.0
1698921841.7524848,16512.0
1698921841.7730603,16512.0
1698921841.7936366,16481.0
1698921841.814212,16512.0
1698921841.8347878,16512.0
1698921841.8553636,16512.0
1698921841.8759396,16512.0
1698921841.8965151,16512.0
1698921841.917091,16512.0
1698921841.9376667,16512.0
1698921841.9582424,16512.0
1698921841.9788182,16512.0
1698921841.999394,16512.0
1698921842.0199695,16512.0
1698921842.0405455,16512.0
1698921842.061121,16512.0
1698921842.081697,16512.0
1698921842.1022727,16512.0
1698921842.1228483,16512.0
1698921842.1434243,16512.0
1698921842.1845758,16512.0
1698921842.2051516,16512.0
1698921842.2257273,16512.0
1698921842.246303,16512.0
1698921842.2668788,16509.0
1698921842.2874546,16483.0
1698921842.3080306,16457.0
1698921842.328606,16422.0
1698921842.349182,16395.0
1698921842.3697577,16370.0
1698921842.3903332,16354.0
1698921842.4109092,16338.0
1698921842.431485,16332.0
1698921842.4520602,16325.0
1698921842.4726365,16321.0
1698921842.4932122,16318.0
1698921842.5137877,16311.0
1698921842.5343635,16317.0
1698921842.5549397,16332.0
1698921842.575515,16348.0
1698921842.5960908,16362.0
1698921842.6166668,16381.0
1698921842.6372423,16404.0
1698921842.657818,16434.0
1698921842.678394,16422.0
1698921842.6989694,16474.0
1698921842.7195454,16494.0
1698921842.7401211,16511.0
1698921842.7606971,16512.0
1698921842.7812726,16512.0
1698921842.8018484,16512.0
1698921842.8224244,16512.0
1698921842.8635757,16512.0
1698921842.8841517,16512.0
1698921842.9047272,16512.0
1698921842.925303,16512.0
1698921842.945879,16512.0
1698921842.9664545,16512.0
1698921842.9870305,16512.0
1698921843.007606,16512.0
1698921843.0281818,16512.0
1698921843.0487576,16512.0
1698921843.0693333,16512.0
1698921843.089909,16512.0
1698921843.1104848,16512.0
1698921843.1310604,16512.0
1698921843.1516364,16512.0
1698921843.1722121,16512.0
1698921843.192788,16512.0
1698921843.2133634,16512.0
1698921843.2339396,16512.0
1698921843.2545152,12830.0
1698921843.275091,12835.0
1698921843.2956667,12867.0
1698921843.3162425,12865.0
1698921843.3368182,12874.0
1698921843.357394,12890.0
1698921843.3779695,12882.0
1698921843.3985455,12904.0
1698921843.419121,12916.0
1698921843.439697,12916.0
1698921843.4602728,12928.0
1698921843.4808483,12939.0
1698921843.5014243,12943.0
1698921843.5425756,12946.0
1698921843.5631516,12953.0
1698921843.5837274,12943.0
1698921843.604303,12931.0
1698921843.624879,12932.0
1698921843.6454546,12927.0
1698921843.6660304,12916.0
1698921843.686606,12930.0
1698921843.707182,12929.0
1698921843.7277575,12928.0
1698921843.7483332,12919.0
1698921843.7689092,12904.0
1698921843.789485,12888.0
1698921843.8100603,12875.0
1698921843.8306365,12854.0
1698921843.8512123,12838.0
1698921843.8717878,12813.0
1698921843.8923635,12785.0
1698921843.9129398,12765.0
1698921843.933515,12742.0
1698921843.9540908,12730.0
1698921843.9746668,12723.0
1698921843.9952424,12715.0
1698921844.015818,12702.0
1698921844.0363941,12691.0
1698921844.0569694,12703.0
1698921844.0775454,12709.0
1698921844.0981212,12709.0
1698921844.118697,12717.0
1698921844.1392727,12746.0
1698921844.1598485,12764.0
1698921844.1804242,12788.0
1698921844.2215757,12830.0
1698921844.2421515,12850.0
1698921844.2627273,12850.0
1698921844.283303,12861.0
1698921844.303879,12889.0
1698921844.3244545,12897.0
1698921844.3450305,12897.0
1698921844.365606,12906.0
1698921844.3861818,12922.0
1698921844.4067576,12941.0
1698921844.4273334,12942.0
1698921844.447909,12976.0
1698921844.4684849,12980.0
1698921844.4890604,13003.0
1698921844.5096364,13014.0
1698921844.5302122,13024.0
1698921844.550788,13035.0
1698921844.5713634,13041.0
1698921844.5919397,13050.0
1698921844.6125152,13061.0
1698921844.6330907,13065.0
1698921844.6536667,13066.0
1698921844.6742425,13086.0
1698921844.694818,13101.0
1698921844.715394,13090.0
1698921844.7359695,13109.0
1698921844.7565453,13101.0
1698921844.777121,13089.0
1698921844.797697,13076.0
1698921844.8182726,13058.0
1698921844.8388484,13065.0
1698921844.8594244,13049.0
1698921844.9005756,13014.0
1698921844.9211516,13003.0
1698921844.9417274,12960.0
1698921844.962303,12932.0
1698921844.982879,12918.0
1698921845.0034547,12883.0
1698921845.0240304,12898.0
1698921845.044606,12875.0
1698921845.065182,12873.0
1698921845.0857575,12885.0
1698921845.1063333,12882.0
1698921845.1269093,12915.0
1698921845.1474848,12934.0
1698921845.1680603,12946.0
1698921845.1886365,12957.0
1698921845.209212,12962.0
1698921845.2297878,12986.0
1698921845.2503636,12984.0
1698921845.2709396,12987.0
1698921845.291515,12994.0
1698921845.3120909,13008.0
1698921845.3326666,13004.0
1698921845.3532424,13012.0
1698921845.3738182,13016.0
1698921845.3943942,13017.0
1698921845.4149694,13025.0
1698921845.4355454,13026.0
1698921845.4561212,13031.0
1698921845.476697,13021.0
1698921845.4972727,13010.0
1698921845.5178485,13016.0
1698921845.5384243,13002.0
1698921845.5795758,13007.0
1698921845.6001515,13019.0
1698921845.6207273,13019.0
1698921845.641303,13034.0
1698921845.6618788,13046.0
1698921845.6824546,13056.0
1698921845.7030306,13054.0
1698921845.7236059,13045.0
1698921845.7441819,13038.0
1698921845.7647576,13032.0
1698921845.7853332,13019.0
1698921845.8059092,13011.0
1698921845.826485,12997.0
1698921845.8470602,12987.0
1698921845.8676364,12977.0
1698921845.8882122,12963.0
1698921845.9087877,12959.0
1698921845.9293635,12950.0
1698921845.9499397,12936.0
1698921845.9705153,12938.0
1698921845.9910908,12929.0
1698921846.0116668,12921.0
1698921846.0322425,12919.0
1698921846.052818,12936.0
1698921846.073394,12943.0
1698921846.0939696,12963.0
1698921846.1145453,12975.0
1698921846.135121,12984.0
1698921846.155697,13018.0
1698921846.1762726,13028.0
1698921846.1968484,13037.0
1698921846.2174244,13044.0
1698921846.2585757,13046.0
1698921846.2791517,13077.0
1698921846.2997272,13071.0
1698921846.320303,13075.0
1698921846.340879,13089.0
1698921846.3614545,13089.0
1698921846.3820305,13086.0
1698921846.402606,13110.0
1698921846.4231818,13127.0
1698921846.4437575,13138.0
1698921846.4643333,13147.0
1698921846.4849093,13152.0
1698921846.5054848,13144.0
1698921846.5260603,13161.0
1698921846.5466366,13143.0
1698921846.567212,13149.0
1698921846.5877879,13151.0
1698921846.6083636,13155.0
1698921846.6289396,13164.0
1698921846.6495152,13178.0
1698921846.670091,13171.0
1698921846.6906667,13166.0
1698921846.7112424,13159.0
1698921846.7318182,13159.0
1698921846.752394,13147.0
1698921846.7729695,13126.0
1698921846.7935455,13122.0
1698921846.814121,13100.0
1698921846.834697,13089.0
1698921846.8552728,13072.0
1698921846.8758483,13057.0
1698921846.8964243,13043.0
1698921846.9375756,13008.0
1698921846.9581516,12995.0
1698921846.9787273,12973.0
1698921846.9993029,12955.0
1698921847.0198789,12952.0
1698921847.0404546,12959.0
1698921847.0610306,12979.0
1698921847.081606,12994.0
1698921847.102182,13009.0
1698921847.1227577,13030.0
1698921847.1433332,13045.0
1698921847.1639092,13060.0
1698921847.184485,13077.0
1698921847.2050602,13077.0
1698921847.2256365,13076.0
1698921847.2462122,13084.0
1698921847.2667878,13076.0
1698921847.2873635,13082.0
1698921847.3079398,13072.0
1698921847.328515,13063.0
1698921847.3490908,13054.0
1698921847.3696668,13048.0
1698921847.3902423,13046.0
1698921847.410818,13042.0
1698921847.431394,13030.0
1698921847.4519694,13017.0
1698921847.4725454,13012.0
1698921847.4931211,13001.0
1698921847.513697,13003.0
1698921847.5342727,12996.0
1698921847.5548484,12995.0
1698921847.5754244,12971.0
1698921847.6165757,12936.0
1698921847.6371517,12925.0
1698921847.6577272,12914.0
1698921847.678303,12901.0
1698921847.698879,12869.0
1698921847.7194545,12859.0
1698921847.7400305,12843.0
1698921847.760606,12827.0
1698921847.7811818,12808.0
1698921847.8017576,12797.0
1698921847.8223333,12786.0
1698921847.842909,12772.0
1698921847.8634849,12760.0
1698921847.8840604,12747.0
1698921847.9046364,12740.0
1698921847.9252121,12731.0
1698921847.945788,12707.0
1698921847.9663634,12701.0
1698921847.9869397,12674.0
1698921848.0075152,12656.0
1698921848.0280907,12650.0
1698921848.0486667,12643.0
1698921848.0692425,12637.0
1698921848.089818,12633.0
1698921848.110394,12653.0
1698921848.1309695,12675.0
1698921848.1515455,12695.0
1698921848.172121,12705.0
1698921848.192697,12701.0
1698921848.2132728,12705.0
1698921848.2338483,12706.0
1698921848.2544243,12701.0
1698921848.2955756,12711.0
1698921848.3161516,12707.0
1698921848.3367274,12705.0
1698921848.357303,12704.0
1698921848.377879,12723.0
1698921848.3984547,12714.0
1698921848.4190304,12724.0
1698921848.439606,12729.0
1698921848.460182,12757.0
1698921848.4807575,12757.0
1698921848.5013332,12758.0
1698921848.5219092,12782.0
1698921848.5424848,12785.0
1698921848.5630603,12792.0
1698921848.5836365,12797.0
1698921848.604212,12796.0
1698921848.6247878,12833.0
1698921848.6453636,12830.0
1698921848.6659398,12849.0
1698921848.686515,12866.0
1698921848.7070909,12860.0
1698921848.7276669,12862.0
1698921848.7482424,12867.0
1698921848.7688181,12870.0
1698921848.7893941,12876.0
1698921848.8099694,12880.0
1698921848.8305454,12888.0
1698921848.8511212,12877.0
1698921848.871697,12872.0
1698921848.8922727,12858.0
1698921848.9128485,12843.0
1698921848.9334242,12851.0
1698921848.9745758,12830.0
1698921848.9951515,12833.0
1698921849.0157273,12843.0
1698921849.036303,12850.0
1698921849.0568788,12862.0
1698921849.0774546,12874.0
1698921849.0980306,12898.0
1698921849.1186059,12922.0
1698921849.1391819,12947.0
1698921849.1597576,12965.0
1698921849.1803331,12986.0
1698921849.2009091,12997.0
1698921849.221485,13009.0
1698921849.2420602,13018.0
1698921849.2626364,13024.0
1698921849.2832122,13026.0
1698921849.303788,13038.0
1698921849.3243635,13042.0
1698921849.3449397,13053.0
1698921849.3655152,13046.0
1698921849.3860908,13056.0
1698921849.4066668,13055.0
1698921849.4272425,13053.0
1698921849.447818,13055.0
1698921849.468394,13059.0
1698921849.4889696,13058.0
1698921849.5095453,13068.0
1698921849.530121,13068.0
1698921849.550697,13071.0
1698921849.5712726,13080.0
1698921849.5918484,13078.0
1698921849.6124244,13094.0
1698921849.6535757,13124.0
1698921849.6741517,13129.0
1698921849.6947272,13151.0
1698921849.715303,13161.0
1698921849.735879,13169.0
1698921849.7564547,13177.0
1698921849.7770305,13177.0
1698921849.797606,13179.0
1698921849.818182,13185.0
1698921849.8387575,13178.0
1698921849.8593333,13171.0
1698921849.8799093,13154.0
1698921849.9004848,13153.0
1698921849.9210603,13144.0
1698921849.9416366,13145.0
1698921849.962212,13136.0
1698921849.9827878,13142.0
1698921850.0033636,13144.0
1698921850.0239396,13143.0
1698921850.0445151,13152.0
1698921850.065091,13146.0
1698921850.0856667,13149.0
1698921850.1062424,13159.0
1698921850.1268182,13160.0
1698921850.147394,13162.0
1698921850.1679695,13156.0
1698921850.1885455,13167.0
1698921850.209121,13168.0
1698921850.229697,13180.0
1698921850.2502728,13180.0
1698921850.2708483,13185.0
1698921850.2914243,13168.0
1698921850.3325758,13179.0
1698921850.3531516,13180.0
1698921850.3737273,13175.0
1698921850.394303,13154.0
1698921850.4148788,13148.0
1698921850.4354546,13142.0
1698921850.4560306,13129.0
1698921850.476606,13120.0
1698921850.497182,13110.0
1698921850.5177577,13088.0
1698921850.5383332,13074.0
1698921850.5589092,13068.0
1698921850.579485,13058.0
1698921850.6000602,13055.0
1698921850.6206365,13046.0
1698921850.6412122,13045.0
1698921850.6617877,13035.0
1698921850.6823635,13037.0
1698921850.7029397,13046.0
1698921850.723515,13035.0
1698921850.7440908,13042.0
1698921850.7646668,13053.0
1698921850.7852423,13040.0
1698921850.805818,13050.0
1698921850.826394,13049.0
1698921850.8469694,13050.0
1698921850.8675454,13051.0
1698921850.8881211,13041.0
1698921850.9086971,13030.0
1698921850.9292727,13028.0
1698921850.9498484,13022.0
1698921850.9704244,13003.0
1698921851.0115757,12994.0
1698921851.0321517,12984.0
1698921851.0527272,12984.0
1698921851.073303,12973.0
1698921851.093879,12958.0
1698921851.1144545,12953.0
1698921851.1350305,12963.0
1698921851.155606,12956.0
1698921851.1761818,12959.0
1698921851.1967576,12949.0
1698921851.2173333,12951.0
1698921851.237909,12952.0
1698921851.2584848,12949.0
1698921851.2790604,12954.0
1698921851.2996364,12949.0
1698921851.3202121,12952.0
1698921851.340788,12946.0
1698921851.3613634,12944.0
1698921851.3819396,12943.0
1698921851.4025152,12936.0
1698921851.423091,12941.0
1698921851.4436667,12928.0
1698921851.4642425,12933.0
1698921851.4848182,12922.0
1698921851.505394,12931.0
1698921851.5259695,12915.0
1698921851.5465455,12933.0
1698921851.567121,12918.0
1698921851.587697,12915.0
1698921851.6082728,12917.0
1698921851.6288483,12905.0
1698921851.6494243,12902.0
1698921851.6905756,12899.0
1698921851.7111516,12897.0
1698921851.7317274,12875.0
1698921851.752303,12861.0
1698921851.772879,12847.0
1698921851.7934546,12826.0
1698921851.8140304,12813.0
1698921851.834606,12810.0
1698921851.855182,12805.0
1698921851.8757575,12800.0
1698921851.8963332,12798.0
1698921851.9169092,12794.0
1698921851.937485,12793.0
1698921851.9580603,12788.0
1698921851.9786365,12787.0
1698921851.9992123,12778.0
1698921852.0197878,12784.0
1698921852.0403636,12785.0
1698921852.0609398,12792.0
1698921852.081515,12792.0
1698921852.1020908,12808.0
1698921852.1226668,12818.0
1698921852.1432424,12832.0
1698921852.1638181,12841.0
1698921852.1843941,12839.0
1698921852.2049694,12843.0
1698921852.2255454,12837.0
1698921852.2461212,12832.0
1698921852.266697,12829.0
1698921852.2872727,12834.0
1698921852.3078485,12844.0
1698921852.3284242,12843.0
1698921852.3695757,12862.0
1698921852.3901515,12864.0
1698921852.4107273,12881.0
1698921852.431303,12886.0
1698921852.451879,12886.0
1698921852.4724545,12891.0
1698921852.4930305,12883.0
1698921852.513606,12896.0
1698921852.5341818,12900.0
1698921852.5547576,12907.0
1698921852.5753334,12906.0
1698921852.595909,12913.0
1698921852.6164849,12915.0
1698921852.6370604,12915.0
1698921852.6576364,12924.0
1698921852.6782122,12926.0
1698921852.698788,12912.0
1698921852.7193635,12918.0
1698921852.7399397,12901.0
1698921852.7605152,12883.0
1698921852.7810907,12886.0
1698921852.8016667,12882.0
1698921852.8222425,12885.0
1698921852.842818,12885.0
1698921852.863394,12883.0
1698921852.8839695,12864.0
1698921852.9045453,12860.0
1698921852.925121,12835.0
1698921852.945697,12825.0
1698921852.9662726,12802.0
1698921852.9868484,12803.0
1698921853.0074244,12808.0
1698921853.0485756,12817.0
1698921853.0691516,12834.0
1698921853.0897274,12855.0
1698921853.110303,12882.0
1698921853.130879,12905.0
1698921853.1514547,12924.0
1698921853.1720304,12938.0
1698921853.192606,12958.0
1698921853.213182,12968.0
1698921853.2337575,12972.0
1698921853.2543333,12967.0
1698921853.2749093,12964.0
1698921853.2954848,12966.0
1698921853.3160603,12962.0
1698921853.3366365,12960.0
1698921853.357212,12959.0
1698921853.3777878,12961.0
1698921853.3983636,12963.0
1698921853.4189396,12961.0
1698921853.439515,12964.0
1698921853.4600909,12963.0
1698921853.4806666,12967.0
1698921853.5012424,12968.0
1698921853.5218182,12959.0
1698921853.5423942,12974.0
1698921853.5629694,12978.0
1698921853.5835454,12974.0
1698921853.6041212,12985.0
1698921853.624697,12995.0
1698921853.6452727,13002.0
1698921853.6658485,12996.0
1698921853.6864243,12990.0
1698921853.7275758,12964.0
1698921853.7481515,12965.0
1698921853.7687273,12956.0
1698921853.789303,12945.0
1698921853.8098788,12938.0
1698921853.8304546,12927.0
1698921853.8510306,12923.0
1698921853.8716059,12932.0
1698921853.8921819,12933.0
1698921853.9127576,12946.0
1698921853.9333332,12960.0
1698921853.9539092,12966.0
1698921853.974485,12974.0
1698921853.9950602,12974.0
1698921854.0156364,12956.0
1698921854.0362122,12938.0
1698921854.0567877,12912.0
1698921854.0773635,12923.0
1698921854.0979397,12929.0
1698921854.1185153,12939.0
1698921854.1390908,12951.0
1698921854.1596668,12968.0
1698921854.1802425,12972.0
1698921854.200818,12987.0
1698921854.221394,13004.0
1698921854.2419696,12997.0
1698921854.2625453,13008.0
1698921854.283121,13016.0
1698921854.303697,13009.0
1698921854.3242726,13010.0
1698921854.3448484,13024.0
1698921854.3654244,13034.0
1698921854.4065757,13057.0
1698921854.4271517,13070.0
1698921854.4477272,13082.0
1698921854.468303,13087.0
1698921854.488879,13100.0
1698921854.5094545,13096.0
1698921854.5300305,13099.0
1698921854.550606,13089.0
1698921854.5711818,13087.0
1698921854.5917575,13074.0
1698921854.6123333,13061.0
1698921854.6329093,13047.0
1698921854.6534848,13043.0
1698921854.6740603,13030.0
1698921854.6946366,13017.0
1698921854.715212,13004.0
1698921854.7357879,12998.0
1698921854.7563636,12984.0
1698921854.7769396,12964.0
1698921854.7975152,12953.0
1698921854.818091,12943.0
1698921854.8386667,12933.0
1698921854.8592424,12916.0
1698921854.8798182,12914.0
1698921854.900394,12905.0
1698921854.9209695,12887.0
1698921854.9415455,12874.0
1698921854.962121,12867.0
1698921854.982697,12856.0
1698921855.0032728,12849.0
1698921855.0238483,12856.0
1698921855.0444243,12866.0
1698921855.0855756,12901.0
1698921855.1061516,12913.0
1698921855.1267273,12930.0
1698921855.1473029,12944.0
1698921855.1678789,12956.0
1698921855.1884546,12954.0
1698921855.2090306,12962.0
1698921855.229606,12966.0
1698921855.250182,12973.0
1698921855.2707577,12974.0
1698921855.2913332,12980.0
1698921855.3119092,12990.0
1698921855.332485,12995.0
1698921855.3530602,13002.0
1698921855.3736365,13002.0
1698921855.3942122,13008.0
1698921855.4147878,13020.0
1698921855.4353635,13027.0
1698921855.4559398,13041.0
1698921855.476515,13047.0
1698921855.4970908,13051.0
1698921855.5176668,13065.0
1698921855.5382423,13070.0
1698921855.558818,13087.0
1698921855.579394,13098.0
1698921855.5999694,13104.0
1698921855.6205454,13113.0
1698921855.6411211,13104.0
1698921855.661697,13096.0
1698921855.6822727,13077.0
1698921855.7028484,13057.0
1698921855.7234244,13036.0
1698921855.7645757,12987.0
1698921855.7851517,12969.0
1698921855.8057272,12958.0
1698921855.826303,12947.0
1698921855.846879,12944.0
1698921855.8674545,12941.0
1698921855.8880305,12943.0
1698921855.908606,12950.0
1698921855.9291818,12948.0
1698921855.9497576,12947.0
1698921855.9703333,12952.0
1698921855.990909,12974.0
1698921856.0114849,12981.0
1698921856.0320604,13000.0
1698921856.0526364,13017.0
1698921856.0732121,13033.0
1698921856.093788,13033.0
1698921856.1143634,13055.0
1698921856.1349397,13043.0
1698921856.1555152,13047.0
1698921856.1760907,13048.0
1698921856.1966667,13049.0
1698921856.2172425,13051.0
1698921856.237818,13046.0
1698921856.258394,13059.0
1698921856.2789695,13063.0
1698921856.2995455,13069.0
1698921856.320121,13082.0
1698921856.340697,13092.0
1698921856.3612728,13100.0
1698921856.3818483,13112.0
1698921856.4024243,13115.0
1698921856.4435756,13118.0
1698921856.4641516,13114.0
1698921856.4847274,13115.0
1698921856.505303,13091.0
1698921856.525879,13078.0
1698921856.5464547,13076.0
1698921856.5670304,13067.0
1698921856.587606,13070.0
1698921856.608182,13076.0
1698921856.6287575,13062.0
1698921856.6493332,13050.0
1698921856.6699092,13031.0
1698921856.6904848,13035.0
1698921856.7110603,13021.0
1698921856.7316365,13005.0
1698921856.752212,12980.0
1698921856.7727878,12975.0
1698921856.7933636,12950.0
1698921856.8139398,12938.0
1698921856.834515,12919.0
1698921856.8550909,12906.0
1698921856.8756669,12895.0
1698921856.8962424,12892.0
1698921856.9168181,12890.0
1698921856.9373941,12897.0
1698921856.9579694,12905.0
1698921856.9785454,12921.0
1698921856.9991212,12930.0
1698921857.019697,12957.0
1698921857.0402727,12975.0
1698921857.0608485,12995.0
1698921857.0814242,13012.0
1698921857.1225758,13022.0
1698921857.1431515,13032.0
1698921857.1637273,13037.0
1698921857.184303,13039.0
1698921857.2048788,13058.0
1698921857.2254546,13055.0
1698921857.2460306,13066.0
1698921857.2666059,13077.0
1698921857.2871819,13095.0
1698921857.3077576,13117.0
1698921857.3283331,13123.0
1698921857.3489091,13136.0
1698921857.369485,13155.0
1698921857.3900602,13155.0
1698921857.4106364,13156.0
1698921857.4312122,13149.0
1698921857.451788,13132.0
1698921857.4723635,13119.0
1698921857.4929397,13109.0
1698921857.5135152,13100.0
1698921857.5340908,13091.0
1698921857.5546668,13081.0
1698921857.5752425,13074.0
1698921857.595818,13058.0
1698921857.616394,13052.0
1698921857.6369696,13036.0
1698921857.6575453,13018.0
1698921857.678121,13008.0
1698921857.698697,12983.0
1698921857.7192726,12962.0
1698921857.7398484,12941.0
1698921857.7604244,12919.0
1698921857.8015757,12877.0
1698921857.8221517,12865.0
1698921857.8427272,12858.0
1698921857.863303,12855.0
1698921857.883879,12864.0
1698921857.9044547,12859.0
1698921857.9250305,12871.0
1698921857.945606,12882.0
1698921857.966182,12912.0
1698921857.9867575,12931.0
1698921858.0073333,12957.0
1698921858.0279093,12990.0
1698921858.0484848,13001.0
1698921858.0690603,13018.0
1698921858.0896366,13043.0
1698921858.110212,13043.0
1698921858.1307878,13057.0
1698921858.1513636,13066.0
1698921858.1719396,13083.0
1698921858.1925151,13101.0
1698921858.213091,13125.0
1698921858.2336667,13137.0
1698921858.2542424,13153.0
1698921858.2748182,13170.0
1698921858.295394,13189.0
1698921858.3159695,13204.0
1698921858.3365455,13217.0
1698921858.357121,13232.0
1698921858.377697,13246.0
1698921858.3982728,13255.0
1698921858.4188483,13259.0
1698921858.4394243,13269.0
1698921858.4805758,13286.0
1698921858.5011516,13297.0
1698921858.5217273,13297.0
1698921858.542303,13308.0
1698921858.5628788,13307.0
1698921858.5834546,13306.0
1698921858.6040306,13300.0
1698921858.624606,13297.0
1698921858.645182,13281.0
1698921858.6657577,13267.0
1698921858.6863332,13254.0
1698921858.7069092,13231.0
1698921858.727485,13217.0
1698921858.7480602,13186.0
1698921858.7686365,13168.0
1698921858.7892122,13158.0
1698921858.8097878,13136.0
1698921858.8303635,13146.0
1698921858.8509398,13138.0
1698921858.871515,13157.0
1698921858.8920908,13167.0
1698921858.9126668,13190.0
1698921858.9332423,13210.0
1698921858.953818,13223.0
1698921858.974394,13231.0
1698921858.9949694,13244.0
1698921859.0155454,13254.0
1698921859.0361211,13259.0
1698921859.0566971,13281.0
1698921859.0772727,13279.0
1698921859.0978484,13280.0
1698921859.1184244,13293.0
1698921859.1595757,13312.0
1698921859.1801517,13336.0
1698921859.2007272,13316.0
1698921859.221303,13337.0
1698921859.241879,13359.0
1698921859.2624545,13342.0
1698921859.2830305,13362.0
1698921859.303606,13374.0
1698921859.3241818,13377.0
1698921859.3447576,13399.0
1698921859.3653333,13409.0
1698921859.385909,13424.0
1698921859.4064848,13434.0
1698921859.4270604,13437.0
1698921859.4476364,13450.0
1698921859.4682121,13463.0
1698921859.488788,13462.0
1698921859.5093634,13473.0
1698921859.5299397,13462.0
1698921859.5505152,13454.0
1698921859.571091,13442.0
1698921859.5916667,13425.0
1698921859.6122425,13407.0
1698921859.6328182,13387.0
1698921859.653394,13365.0
1698921859.6739695,13343.0
1698921859.6945455,13331.0
1698921859.715121,13310.0
1698921859.735697,13298.0
1698921859.7562728,13291.0
1698921859.7768483,13293.0
1698921859.7974243,13299.0
1698921859.8385756,13312.0
1698921859.8591516,13317.0
1698921859.8797274,13323.0
1698921859.900303,13338.0
1698921859.920879,13338.0
1698921859.9414546,13354.0
1698921859.9620304,13361.0
1698921859.982606,13370.0
1698921860.003182,13375.0
1698921860.0237575,13379.0
1698921860.0443332,13380.0
1698921860.0649092,13389.0
1698921860.085485,13392.0
1698921860.1060603,13396.0
1698921860.1266365,13403.0
1698921860.1472123,13405.0
1698921860.1677878,13425.0
1698921860.1883636,13425.0
1698921860.2089398,13438.0
1698921860.229515,13447.0
1698921860.2500908,13456.0
1698921860.2706668,13473.0
1698921860.2912424,13474.0
1698921860.3118181,13471.0
1698921860.3323941,13484.0
1698921860.3529694,13483.0
1698921860.3735454,13477.0
1698921860.3941212,13487.0
1698921860.414697,13472.0
1698921860.4352727,13485.0
1698921860.4558485,13479.0
1698921860.4764242,13478.0
1698921860.5175757,13446.0
1698921860.5381515,13431.0
1698921860.5587273,13405.0
1698921860.579303,13389.0
1698921860.5998788,13382.0
1698921860.6204545,13359.0
1698921860.6410306,13350.0
1698921860.661606,13329.0
1698921860.6821818,13337.0
1698921860.7027576,13320.0
1698921860.7233334,13310.0
1698921860.7439091,13321.0
1698921860.764485,13307.0
1698921860.7850604,13292.0
1698921860.8056364,13300.0
1698921860.8262122,13300.0
1698921860.846788,13309.0
1698921860.8673635,13308.0
1698921860.8879397,13318.0
1698921860.9085152,13329.0
1698921860.9290907,13346.0
1698921860.9496667,13356.0
1698921860.9702425,13356.0
1698921860.990818,13359.0
1698921861.011394,13367.0
1698921861.0319695,13375.0
1698921861.0525453,13379.0
1698921861.073121,13375.0
1698921861.093697,13372.0
1698921861.1142726,13372.0
1698921861.1348484,13368.0
1698921861.1554244,13372.0
1698921861.1965756,13382.0
1698921861.2171516,13392.0
1698921861.2377274,13393.0
1698921861.258303,13395.0
1698921861.278879,13402.0
1698921861.2994547,13406.0
1698921861.3200305,13403.0
1698921861.340606,13401.0
1698921861.361182,13413.0
1698921861.3817575,13404.0
1698921861.4023333,13408.0
1698921861.4229093,13405.0
1698921861.4434848,13418.0
1698921861.4640603,13428.0
1698921861.4846365,13429.0
1698921861.505212,13444.0
1698921861.5257878,13434.0
1698921861.5463636,13439.0
1698921861.5669396,13437.0
1698921861.587515,13440.0
1698921861.6080909,13441.0
1698921861.6286666,13444.0
1698921861.6492424,13444.0
1698921861.6698182,13441.0
1698921861.690394,13446.0
1698921861.7109694,13450.0
1698921861.7315454,13461.0
1698921861.7521212,13476.0
1698921861.772697,13488.0
1698921861.7932727,13504.0
1698921861.8138485,13503.0
1698921861.8344243,13526.0
1698921861.8755758,13570.0
1698921861.8961515,13581.0
1698921861.9167273,13597.0
1698921861.937303,13618.0
1698921861.9578788,13624.0
1698921861.9784546,13637.0
1698921861.9990306,13637.0
1698921862.0196059,13662.0
1698921862.0401819,13669.0
1698921862.0607576,13682.0
1698921862.0813332,13690.0
1698921862.1019092,13701.0
1698921862.122485,13706.0
1698921862.1430602,13704.0
1698921862.1636364,13719.0
1698921862.1842122,13726.0
1698921862.2047877,13735.0
1698921862.2253635,13742.0
1698921862.2459397,13745.0
1698921862.2665153,13751.0
1698921862.2870908,13758.0
1698921862.3076668,13772.0
1698921862.3282425,13766.0
1698921862.348818,13777.0
1698921862.369394,13783.0
1698921862.3899696,13787.0
1698921862.4105453,13803.0
1698921862.431121,13799.0
1698921862.451697,13817.0
1698921862.4722726,13812.0
1698921862.4928484,13816.0
1698921862.5134244,13812.0
1698921862.5545757,13826.0
1698921862.5751517,13826.0
1698921862.5957272,13831.0
1698921862.616303,13841.0
1698921862.636879,13839.0
1698921862.6574545,13837.0
1698921862.6780305,13836.0
1698921862.698606,13839.0
1698921862.7191818,13845.0
1698921862.7397575,13847.0
1698921862.7603333,13845.0
1698921862.780909,13850.0
1698921862.8014848,13854.0
1698921862.8220603,13843.0
1698921862.8426366,13847.0
1698921862.863212,13852.0
1698921862.8837879,13853.0
1698921862.9043636,13863.0
1698921862.9249396,13856.0
1698921862.9455152,13869.0
1698921862.966091,13866.0
1698921862.9866667,13857.0
1698921863.0072424,13861.0
1698921863.0278182,13855.0
1698921863.048394,13852.0
1698921863.0689695,13856.0
1698921863.0895455,13839.0
1698921863.110121,13826.0
1698921863.130697,13826.0
1698921863.1512728,13820.0
1698921863.1718483,13811.0
1698921863.1924243,13808.0
1698921863.2335756,13793.0
1698921863.2541516,13786.0
1698921863.2747273,13773.0
1698921863.2953029,13766.0
1698921863.3158789,13765.0
1698921863.3364546,13756.0
1698921863.3570306,13757.0
1698921863.377606,13746.0
1698921863.398182,13737.0
1698921863.4187577,13741.0
1698921863.4393332,13733.0
1698921863.4599092,13729.0
1698921863.480485,13733.0
1698921863.5010602,13724.0
1698921863.5216365,13725.0
1698921863.5422122,13713.0
1698921863.5627878,13714.0
1698921863.5833635,13708.0
1698921863.6039398,13702.0
1698921863.624515,13696.0
1698921863.6450908,13689.0
1698921863.6656668,13676.0
1698921863.6862423,13680.0
1698921863.706818,13665.0
1698921863.727394,13665.0
1698921863.7479694,13656.0
1698921863.7685454,13661.0
1698921863.7891212,13645.0
1698921863.809697,13643.0
1698921863.8302727,13652.0
1698921863.8508484,13643.0
1698921863.8714242,13643.0
1698921863.9125757,13635.0
1698921863.9331517,13639.0
1698921863.9537272,13634.0
1698921863.974303,13631.0
1698921863.994879,13630.0
1698921864.0154545,13629.0
1698921864.0360305,13625.0
1698921864.056606,13633.0
1698921864.0771818,13636.0
1698921864.0977576,13642.0
1698921864.1183333,13641.0
1698921864.138909,13638.0
1698921864.1594849,13643.0
1698921864.1800604,13645.0
1698921864.2006364,13655.0
1698921864.2212121,13655.0
1698921864.241788,13651.0
1698921864.2623634,13652.0
1698921864.2829397,13665.0
1698921864.3035152,13660.0
1698921864.3240907,13677.0
1698921864.3446667,13684.0
1698921864.3652425,13682.0
1698921864.385818,13658.0
1698921864.406394,13670.0
1698921864.4269695,13665.0
1698921864.4475455,13672.0
1698921864.468121,13676.0
1698921864.488697,13672.0
1698921864.5092728,13679.0
1698921864.5298483,13689.0
1698921864.5504243,13673.0
1698921864.5915756,13691.0
1698921864.6121516,13691.0
1698921864.6327274,13685.0
1698921864.653303,13692.0
1698921864.673879,13687.0
1698921864.6944547,13686.0
1698921864.7150304,13683.0
1698921864.735606,13675.0
1698921864.756182,13680.0
1698921864.7767575,13683.0
1698921864.7973332,13684.0
1698921864.8179092,13685.0
1698921864.8384848,13682.0
1698921864.8590603,13691.0
1698921864.8796365,13691.0
1698921864.900212,13699.0
1698921864.9207878,13693.0
1698921864.9413636,13687.0
1698921864.9619398,13693.0
1698921864.982515,13688.0
1698921865.0030909,13682.0
1698921865.0236669,13681.0
1698921865.0442424,13677.0
1698921865.0648181,13675.0
1698921865.0853941,13668.0
1698921865.1059694,13654.0
1698921865.1265454,13651.0
1698921865.1471212,13644.0
1698921865.167697,13637.0
1698921865.1882727,13632.0
1698921865.2088485,13636.0
1698921865.2294242,13620.0
1698921865.2705758,13614.0
1698921865.2911515,13604.0
1698921865.3117273,13599.0
1698921865.332303,13590.0
1698921865.3528788,13587.0
1698921865.3734546,13578.0
1698921865.3940306,13575.0
1698921865.4146059,13573.0
1698921865.4351819,13554.0
1698921865.4557576,13554.0
1698921865.4763331,13563.0
1698921865.4969091,13545.0
1698921865.517485,13539.0
1698921865.5380602,13536.0
1698921865.5586364,13534.0
1698921865.5792122,13529.0
1698921865.599788,13515.0
1698921865.6203635,13507.0
1698921865.6409397,13507.0
1698921865.6615152,13505.0
1698921865.6820908,13481.0
1698921865.7026668,13476.0
1698921865.7232425,13472.0
1698921865.743818,13469.0
1698921865.764394,13457.0
1698921865.7849696,13456.0
1698921865.8055453,13451.0
1698921865.826121,13442.0
1698921865.846697,13435.0
1698921865.8672726,13427.0
1698921865.8878484,13416.0
1698921865.9084244,13424.0
1698921865.9495757,13404.0
1698921865.9701517,13394.0
1698921865.9907272,13402.0
1698921866.011303,13383.0
1698921866.031879,13382.0
1698921866.0524545,13379.0
1698921866.0730305,13380.0
1698921866.093606,13372.0
1698921866.114182,13362.0
1698921866.1347575,13358.0
1698921866.1553333,13365.0
1698921866.1759093,13348.0
1698921866.1964848,13337.0
1698921866.2170603,13344.0
1698921866.2376366,13337.0
1698921866.258212,13336.0
1698921866.2787879,13336.0
1698921866.2993636,13327.0
1698921866.3199396,13322.0
1698921866.3405151,13323.0
1698921866.361091,13321.0
1698921866.3816667,13316.0
1698921866.4022424,13319.0
1698921866.4228182,13306.0
1698921866.443394,13306.0
1698921866.4639695,13310.0
1698921866.4845455,13296.0
1698921866.505121,13299.0
1698921866.525697,13287.0
1698921866.5462728,13282.0
1698921866.5668483,13273.0
1698921866.5874243,13271.0
1698921866.6285758,13255.0
1698921866.6491516,13249.0
1698921866.6697273,13243.0
1698921866.690303,13228.0
1698921866.7108788,13222.0
1698921866.7314546,13211.0
1698921866.7520306,13208.0
1698921866.772606,13207.0
1698921866.793182,13198.0
1698921866.8137577,13200.0
1698921866.8343332,13185.0
1698921866.8549092,13182.0
1698921866.875485,13173.0
1698921866.8960602,13162.0
1698921866.9166365,13165.0
1698921866.9372122,13164.0
1698921866.9577878,13151.0
1698921866.9783635,13148.0
1698921866.9989398,13135.0
1698921867.019515,13126.0
1698921867.0400908,13123.0
1698921867.0606668,13109.0
1698921867.0812423,13090.0
1698921867.101818,13086.0
1698921867.122394,13070.0
1698921867.1429694,13059.0
1698921867.1635454,13049.0
1698921867.1841211,13033.0
1698921867.2046971,13023.0
1698921867.2252727,13009.0
1698921867.2458484,13003.0
1698921867.2664244,12988.0
1698921867.3075757,12958.0
1698921867.3281517,12948.0
1698921867.3487272,12941.0
1698921867.369303,12925.0
1698921867.389879,12913.0
1698921867.4104545,12913.0
1698921867.4310305,12903.0
1698921867.451606,12894.0
1698921867.4721818,12885.0
1698921867.4927576,12872.0
1698921867.5133333,12878.0
1698921867.533909,12866.0
1698921867.5544848,12862.0
1698921867.5750604,12847.0
1698921867.5956364,12854.0
1698921867.6162121,12842.0
1698921867.636788,12843.0
1698921867.6573634,12832.0
1698921867.6779397,12826.0
1698921867.6985152,12825.0
1698921867.719091,12822.0
1698921867.7396667,12815.0
1698921867.7602425,12811.0
1698921867.7808182,12800.0
1698921867.801394,12784.0
1698921867.8219695,12771.0
1698921867.8425455,12760.0
1698921867.863121,12751.0
1698921867.883697,12730.0
1698921867.9042728,12719.0
1698921867.9248483,12696.0
1698921867.9454243,12695.0
1698921867.9865756,12657.0
1698921868.0071516,12654.0
1698921868.0277274,12645.0
1698921868.048303,12631.0
1698921868.068879,12619.0
1698921868.0894547,12605.0
1698921868.1100304,12599.0
1698921868.130606,12592.0
1698921868.151182,12584.0
1698921868.1717575,12566.0
1698921868.1923332,12558.0
1698921868.2129092,12550.0
1698921868.2334847,12549.0
1698921868.2540603,12529.0
1698921868.2746365,12512.0
1698921868.2952123,12508.0
1698921868.3157878,12515.0
1698921868.3363636,12514.0
1698921868.3569398,12516.0
1698921868.377515,12503.0
1698921868.3980908,12498.0
1698921868.4186668,12504.0
1698921868.4392424,12501.0
1698921868.4598181,12492.0
1698921868.4803941,12478.0
1698921868.5009694,12492.0
1698921868.5215454,12474.0
1698921868.5421212,12471.0
1698921868.562697,12459.0
1698921868.5832727,12462.0
1698921868.6038485,12441.0
1698921868.6244242,12438.0
1698921868.6655757,12428.0
1698921868.6861515,12426.0
1698921868.7067273,12427.0
1698921868.727303,12422.0
1698921868.7478788,12427.0
1698921868.7684546,12426.0
1698921868.7890306,12428.0
1698921868.809606,12434.0
1698921868.8301818,12445.0
1698921868.8507576,12449.0
1698921868.8713334,12456.0
1698921868.8919091,12470.0
1698921868.912485,12473.0
1698921868.9330604,12474.0
1698921868.9536364,12480.0
1698921868.9742122,12472.0
1698921868.994788,12484.0
