ts(msec),PPG
1698921834036.5757,15907.0
1698921834057.1516,15905.0
1698921834077.7273,15893.0
1698921834098.303,15885.0
1698921834118.879,15873.0
1698921834139.4546,15877.0
1698921834160.0305,15869.0
1698921834180.606,15861.0
1698921834201.182,15857.0
1698921834221.7576,15847.0
1698921834242.3333,15838.0
1698921834262.9092,15832.0
1698921834283.4849,15830.0
1698921834304.0603,15819.0
1698921834324.6365,15812.0
1698921834345.2122,15802.0
1698921834365.7878,15798.0
1698921834386.3635,15788.0
1698921834406.9397,15780.0
1698921834427.5151,15770.0
1698921834448.0908,15755.0
1698921834468.6667,15752.0
1698921834489.2424,15720.0
1698921834509.818,15749.0
1698921834530.394,15744.0
1698921834550.9695,15737.0
1698921834571.5454,15729.0
1698921834592.121,15727.0
1698921834612.697,15685.0
1698921834633.2727,15712.0
1698921834653.8484,15705.0
1698921834674.4243,15704.0
1698921834715.5757,15699.0
1698921834736.1516,15693.0
1698921834756.7273,15686.0
1698921834777.303,15688.0
1698921834797.879,15684.0
1698921834818.4546,15681.0
1698921834839.0305,15675.0
1698921834859.606,15671.0
1698921834880.182,15669.0
1698921834900.7576,15662.0
1698921834921.3333,15658.0
1698921834941.9092,15655.0
1698921834962.4849,15652.0
1698921834983.0603,15648.0
1698921835003.6365,15643.0
1698921835024.2122,15642.0
1698921835044.7878,15645.0
1698921835065.3635,15642.0
1698921835085.9397,15634.0
1698921835106.5151,15632.0
1698921835127.0908,15629.0
1698921835147.6667,15619.0
1698921835168.2424,15612.0
1698921835188.818,15608.0
1698921835209.394,15597.0
1698921835229.9695,15592.0
1698921835250.5454,15591.0
1698921835271.121,15583.0
1698921835291.697,15581.0
1698921835312.2727,15576.0
1698921835332.8484,15566.0
1698921835353.4243,15568.0
1698921835394.5757,15556.0
1698921835415.1516,15555.0
1698921835435.7273,15551.0
1698921835456.303,15543.0
1698921835476.879,15536.0
1698921835497.4546,15533.0
1698921835518.0305,15533.0
1698921835538.606,15529.0
1698921835559.182,15527.0
1698921835579.7576,15524.0
1698921835600.3333,15518.0
1698921835620.9092,15517.0
1698921835641.4849,15516.0
1698921835662.0603,15515.0
1698921835682.6365,15516.0
1698921835703.2122,15513.0
1698921835723.7878,15514.0
1698921835744.3635,15516.0
1698921835764.9397,15512.0
1698921835785.5151,15516.0
1698921835806.0908,15509.0
1698921835826.6667,15511.0
1698921835847.2424,15509.0
1698921835867.818,15507.0
1698921835888.394,15498.0
1698921835908.9695,15499.0
1698921835929.5454,15492.0
1698921835950.121,15485.0
1698921835970.697,15480.0
1698921835991.2727,15476.0
1698921836011.8484,15468.0
1698921836032.4243,15464.0
1698921836073.5757,15441.0
1698921836094.1516,15437.0
1698921836114.7273,15428.0
1698921836135.303,15419.0
1698921836155.879,15420.0
1698921836176.4546,15407.0
1698921836197.0305,15397.0
1698921836217.606,15390.0
1698921836238.182,15377.0
1698921836258.7576,15379.0
1698921836279.3333,15367.0
1698921836299.9092,15372.0
1698921836320.4849,15368.0
1698921836341.0603,15359.0
1698921836361.6365,15355.0
1698921836382.2122,15338.0
1698921836402.7878,15325.0
1698921836423.3635,15319.0
1698921836443.9397,15315.0
1698921836464.5151,15301.0
1698921836485.0908,15296.0
1698921836505.6667,15289.0
1698921836526.2424,15289.0
1698921836546.818,15276.0
1698921836567.394,15278.0
1698921836587.9695,15273.0
1698921836608.5454,15263.0
1698921836629.121,15265.0
1698921836649.697,15255.0
1698921836670.2727,15254.0
1698921836690.8484,15249.0
1698921836711.4243,15245.0
1698921836752.5757,15239.0
1698921836773.1516,15234.0
1698921836793.7273,15232.0
1698921836814.303,15224.0
1698921836834.879,15218.0
1698921836855.4546,15220.0
1698921836876.0305,15216.0
1698921836896.606,15210.0
1698921836917.182,15205.0
1698921836937.7576,15202.0
1698921836958.3333,15195.0
1698921836978.9092,15193.0
1698921836999.4849,15186.0
1698921837020.0603,15174.0
1698921837040.6365,15175.0
1698921837061.2122,15167.0
1698921837081.7878,15163.0
1698921837102.3635,15162.0
1698921837122.9397,15155.0
1698921837143.5151,15148.0
1698921837164.0908,15147.0
1698921837184.6667,15146.0
1698921837205.2424,15136.0
1698921837225.818,15140.0
1698921837246.394,15133.0
1698921837266.9695,15132.0
1698921837287.5454,15127.0
1698921837308.121,15131.0
1698921837328.697,15124.0
1698921837349.2727,15115.0
1698921837369.8484,15111.0
1698921837390.4243,15112.0
1698921837431.5757,15106.0
1698921837452.1516,15110.0
1698921837472.7273,15099.0
1698921837493.303,15100.0
1698921837513.879,15102.0
1698921837534.4546,15099.0
1698921837555.0305,15090.0
1698921837575.606,15098.0
1698921837596.182,15110.0
1698921837616.7576,15108.0
1698921837637.3333,15106.0
1698921837657.9092,15099.0
1698921837678.4849,15099.0
1698921837699.0603,15093.0
1698921837719.6365,15088.0
1698921837740.2122,15091.0
1698921837760.7878,15087.0
1698921837781.3635,15086.0
1698921837801.9397,15080.0
1698921837822.5151,15082.0
1698921837843.0908,15076.0
1698921837863.6667,15070.0
1698921837884.2424,15073.0
1698921837904.818,15066.0
1698921837925.394,15063.0
1698921837945.9695,15060.0
1698921837966.5454,15058.0
1698921837987.121,15050.0
1698921838007.697,15044.0
1698921838028.2727,15045.0
1698921838048.8484,15037.0
1698921838069.4243,15036.0
1698921838110.5757,15030.0
1698921838131.1516,15024.0
1698921838151.7273,15023.0
1698921838172.303,15014.0
1698921838192.879,15011.0
1698921838213.4546,15007.0
1698921838234.0305,15005.0
1698921838254.606,15002.0
1698921838275.182,15000.0
1698921838295.7576,15004.0
1698921838316.3333,15007.0
1698921838336.9092,15014.0
1698921838357.4849,15011.0
1698921838378.0603,15010.0
1698921838398.6365,15008.0
1698921838419.2122,15007.0
1698921838439.7878,14998.0
1698921838460.3635,15000.0
1698921838480.9397,14997.0
1698921838501.5151,14994.0
1698921838522.0908,14995.0
1698921838542.6667,14993.0
1698921838563.2424,14985.0
1698921838583.818,14989.0
1698921838604.394,14982.0
1698921838624.9695,14979.0
1698921838645.5454,14972.0
1698921838666.121,14967.0
1698921838686.697,14968.0
1698921838707.2727,14962.0
1698921838727.8484,14963.0
1698921838748.4243,14963.0
1698921838789.5757,14959.0
1698921838810.1516,14962.0
1698921838830.7273,14970.0
1698921838851.303,14969.0
1698921838871.879,14976.0
1698921838892.4546,14972.0
1698921838913.0305,14971.0
1698921838933.606,14976.0
1698921838954.182,14971.0
1698921838974.7576,14972.0
1698921838995.3333,14970.0
1698921839015.9092,14966.0
1698921839036.4849,14966.0
1698921839057.0603,14971.0
1698921839077.6365,14967.0
1698921839098.2122,14971.0
1698921839118.7878,14974.0
1698921839139.3635,14978.0
1698921839159.9397,14983.0
1698921839180.5151,15003.0
1698921839201.0908,15006.0
1698921839221.6667,15022.0
1698921839242.2424,15036.0
1698921839262.818,15047.0
1698921839283.394,15069.0
1698921839303.9695,15097.0
1698921839324.5454,15137.0
1698921839345.121,15177.0
1698921839365.697,15212.0
1698921839386.2727,15250.0
1698921839406.8484,15287.0
1698921839427.4243,15303.0
1698921839468.5757,15323.0
1698921839489.1516,15333.0
1698921839509.7273,15353.0
1698921839530.303,15389.0
1698921839550.879,15425.0
1698921839571.4546,15454.0
1698921839592.0305,15482.0
1698921839612.606,15520.0
1698921839633.182,15547.0
1698921839653.7576,15581.0
1698921839674.3333,15608.0
1698921839694.9092,15636.0
1698921839715.4849,15663.0
1698921839736.0603,15690.0
1698921839756.6365,15718.0
1698921839777.2122,15739.0
1698921839797.7878,15757.0
1698921839818.3635,15779.0
1698921839838.9397,15789.0
1698921839859.5151,15800.0
1698921839880.0908,15809.0
1698921839900.6667,15823.0
1698921839921.2424,15834.0
1698921839941.818,15850.0
1698921839962.394,15875.0
1698921839982.9695,15902.0
1698921840003.5454,15928.0
1698921840024.121,15962.0
1698921840044.697,16004.0
1698921840065.2727,16033.0
1698921840085.8484,16064.0
1698921840106.4243,16081.0
1698921840147.5757,16123.0
1698921840168.1516,16145.0
1698921840188.7273,16162.0
1698921840209.303,16176.0
1698921840229.879,16189.0
1698921840250.4546,16205.0
1698921840271.0305,16215.0
1698921840291.606,16213.0
1698921840312.182,16206.0
1698921840332.7576,16203.0
1698921840353.3333,16204.0
1698921840373.9092,16205.0
1698921840394.4849,16198.0
1698921840415.0603,16203.0
1698921840435.6365,16201.0
1698921840456.2122,16188.0
1698921840476.7878,16176.0
1698921840497.3635,16157.0
1698921840517.9397,16135.0
1698921840538.5151,16111.0
1698921840559.0908,16099.0
1698921840579.6667,16101.0
1698921840600.2424,16120.0
1698921840620.818,16134.0
1698921840641.394,16155.0
1698921840661.9695,16170.0
1698921840682.5454,16193.0
1698921840703.121,16216.0
1698921840723.697,16239.0
1698921840744.2727,16257.0
1698921840764.8484,16277.0
1698921840785.4243,16282.0
1698921840826.5757,16298.0
1698921840847.1516,16312.0
1698921840867.7273,16321.0
1698921840888.303,16328.0
1698921840908.879,16340.0
1698921840929.4546,16357.0
1698921840950.0305,16379.0
1698921840970.606,16410.0
1698921840991.182,16432.0
1698921841011.7576,16456.0
1698921841032.3333,16485.0
1698921841052.9092,16505.0
1698921841073.4849,16512.0
1698921841094.0603,16512.0
1698921841114.6365,16512.0
1698921841135.2122,16512.0
1698921841155.7878,16512.0
1698921841176.3635,16512.0
1698921841196.9397,16512.0
1698921841217.5151,16512.0
1698921841238.0908,16512.0
1698921841258.6667,16512.0
1698921841279.2424,16512.0
1698921841299.818,16512.0
1698921841320.394,16498.0
1698921841340.9695,16471.0
1698921841361.5454,16440.0
1698921841382.121,16410.0
1698921841402.697,16396.0
1698921841423.2727,16391.0
1698921841443.8484,16388.0
1698921841464.4243,16390.0
1698921841505.5757,16395.0
1698921841526.1516,16398.0
1698921841546.7273,16407.0
1698921841567.303,16421.0
1698921841587.879,16435.0
1698921841608.4546,16451.0
1698921841629.0305,16463.0
1698921841649.606,16475.0
1698921841670.182,16485.0
1698921841690.7576,16493.0
1698921841711.3333,16507.0
1698921841731.9092,16479.0
1698921841752.4849,16512.0
1698921841773.0603,16512.0
1698921841793.6365,16481.0
1698921841814.2122,16512.0
1698921841834.7878,16512.0
1698921841855.3635,16512.0
1698921841875.9397,16512.0
1698921841896.5151,16512.0
1698921841917.0908,16512.0
1698921841937.6667,16512.0
1698921841958.2424,16512.0
1698921841978.818,16512.0
1698921841999.394,16512.0
1698921842019.9695,16512.0
1698921842040.5454,16512.0
1698921842061.121,16512.0
1698921842081.697,16512.0
1698921842102.2727,16512.0
1698921842122.8484,16512.0
1698921842143.4243,16512.0
1698921842184.5757,16512.0
1698921842205.1516,16512.0
1698921842225.7273,16512.0
1698921842246.303,16512.0
1698921842266.879,16509.0
1698921842287.4546,16483.0
1698921842308.0305,16457.0
1698921842328.606,16422.0
1698921842349.182,16395.0
1698921842369.7576,16370.0
1698921842390.3333,16354.0
1698921842410.9092,16338.0
1698921842431.4849,16332.0
1698921842452.0603,16325.0
1698921842472.6365,16321.0
1698921842493.2122,16318.0
1698921842513.7878,16311.0
1698921842534.3635,16317.0
1698921842554.9397,16332.0
1698921842575.5151,16348.0
1698921842596.0908,16362.0
1698921842616.6667,16381.0
1698921842637.2424,16404.0
1698921842657.818,16434.0
1698921842678.394,16422.0
1698921842698.9695,16474.0
1698921842719.5454,16494.0
1698921842740.121,16511.0
1698921842760.697,16512.0
1698921842781.2727,16512.0
1698921842801.8484,16512.0
1698921842822.4243,16512.0
1698921842863.5757,16512.0
1698921842884.1516,16512.0
1698921842904.7273,16512.0
1698921842925.303,16512.0
1698921842945.879,16512.0
1698921842966.4546,16512.0
1698921842987.0305,16512.0
1698921843007.606,16512.0
1698921843028.182,16512.0
1698921843048.7576,16512.0
1698921843069.3333,16512.0
1698921843089.9092,16512.0
1698921843110.4849,16512.0
1698921843131.0603,16512.0
1698921843151.6365,16512.0
1698921843172.2122,16512.0
1698921843192.7878,16512.0
1698921843213.3635,16512.0
1698921843233.9397,16512.0
1698921843254.5151,12830.0
1698921843275.0908,12835.0
1698921843295.6667,12867.0
1698921843316.2424,12865.0
1698921843336.818,12874.0
1698921843357.394,12890.0
1698921843377.9695,12882.0
1698921843398.5454,12904.0
1698921843419.121,12916.0
1698921843439.697,12916.0
1698921843460.2727,12928.0
1698921843480.8484,12939.0
1698921843501.4243,12943.0
1698921843542.5757,12946.0
1698921843563.1516,12953.0
1698921843583.7273,12943.0
1698921843604.303,12931.0
1698921843624.879,12932.0
1698921843645.4546,12927.0
1698921843666.0305,12916.0
1698921843686.606,12930.0
1698921843707.182,12929.0
1698921843727.7576,12928.0
1698921843748.3333,12919.0
1698921843768.9092,12904.0
1698921843789.4849,12888.0
1698921843810.0603,12875.0
1698921843830.6365,12854.0
1698921843851.2122,12838.0
1698921843871.7878,12813.0
1698921843892.3635,12785.0
1698921843912.9397,12765.0
1698921843933.5151,12742.0
1698921843954.0908,12730.0
1698921843974.6667,12723.0
1698921843995.2424,12715.0
1698921844015.818,12702.0
1698921844036.394,12691.0
1698921844056.9695,12703.0
1698921844077.5454,12709.0
1698921844098.121,12709.0
1698921844118.697,12717.0
1698921844139.2727,12746.0
1698921844159.8484,12764.0
1698921844180.4243,12788.0
1698921844221.5757,12830.0
1698921844242.1516,12850.0
1698921844262.7273,12850.0
1698921844283.303,12861.0
1698921844303.879,12889.0
1698921844324.4546,12897.0
1698921844345.0305,12897.0
1698921844365.606,12906.0
1698921844386.182,12922.0
1698921844406.7576,12941.0
1698921844427.3333,12942.0
1698921844447.9092,12976.0
1698921844468.4849,12980.0
1698921844489.0603,13003.0
1698921844509.6365,13014.0
1698921844530.2122,13024.0
1698921844550.7878,13035.0
1698921844571.3635,13041.0
1698921844591.9397,13050.0
1698921844612.5151,13061.0
1698921844633.0908,13065.0
1698921844653.6667,13066.0
1698921844674.2424,13086.0
1698921844694.818,13101.0
1698921844715.394,13090.0
1698921844735.9695,13109.0
1698921844756.5454,13101.0
1698921844777.121,13089.0
1698921844797.697,13076.0
1698921844818.2727,13058.0
1698921844838.8484,13065.0
1698921844859.4243,13049.0
1698921844900.5757,13014.0
1698921844921.1516,13003.0
1698921844941.7273,12960.0
1698921844962.303,12932.0
1698921844982.879,12918.0
1698921845003.4546,12883.0
1698921845024.0305,12898.0
1698921845044.606,12875.0
1698921845065.182,12873.0
1698921845085.7576,12885.0
1698921845106.3333,12882.0
1698921845126.9092,12915.0
1698921845147.4849,12934.0
1698921845168.0603,12946.0
1698921845188.6365,12957.0
1698921845209.2122,12962.0
1698921845229.7878,12986.0
1698921845250.3635,12984.0
1698921845270.9397,12987.0
1698921845291.5151,12994.0
1698921845312.0908,13008.0
1698921845332.6667,13004.0
1698921845353.2424,13012.0
1698921845373.818,13016.0
1698921845394.394,13017.0
1698921845414.9695,13025.0
1698921845435.5454,13026.0
1698921845456.121,13031.0
1698921845476.697,13021.0
1698921845497.2727,13010.0
1698921845517.8484,13016.0
1698921845538.4243,13002.0
1698921845579.5757,13007.0
1698921845600.1516,13019.0
1698921845620.7273,13019.0
1698921845641.303,13034.0
1698921845661.879,13046.0
1698921845682.4546,13056.0
1698921845703.0305,13054.0
1698921845723.606,13045.0
1698921845744.182,13038.0
1698921845764.7576,13032.0
1698921845785.3333,13019.0
1698921845805.9092,13011.0
1698921845826.4849,12997.0
1698921845847.0603,12987.0
1698921845867.6365,12977.0
1698921845888.2122,12963.0
1698921845908.7878,12959.0
1698921845929.3635,12950.0
1698921845949.9397,12936.0
1698921845970.5151,12938.0
1698921845991.0908,12929.0
1698921846011.6667,12921.0
1698921846032.2424,12919.0
1698921846052.818,12936.0
1698921846073.394,12943.0
1698921846093.9695,12963.0
1698921846114.5454,12975.0
1698921846135.121,12984.0
1698921846155.697,13018.0
1698921846176.2727,13028.0
1698921846196.8484,13037.0
1698921846217.4243,13044.0
1698921846258.5757,13046.0
1698921846279.1516,13077.0
1698921846299.7273,13071.0
1698921846320.303,13075.0
1698921846340.879,13089.0
1698921846361.4546,13089.0
1698921846382.0305,13086.0
1698921846402.606,13110.0
1698921846423.182,13127.0
1698921846443.7576,13138.0
1698921846464.3333,13147.0
1698921846484.9092,13152.0
1698921846505.4849,13144.0
1698921846526.0603,13161.0
1698921846546.6365,13143.0
1698921846567.2122,13149.0
1698921846587.7878,13151.0
1698921846608.3635,13155.0
1698921846628.9397,13164.0
1698921846649.5151,13178.0
1698921846670.0908,13171.0
1698921846690.6667,13166.0
1698921846711.2424,13159.0
1698921846731.818,13159.0
1698921846752.394,13147.0
1698921846772.9695,13126.0
1698921846793.5454,13122.0
1698921846814.121,13100.0
1698921846834.697,13089.0
1698921846855.2727,13072.0
1698921846875.8484,13057.0
1698921846896.4243,13043.0
1698921846937.5757,13008.0
1698921846958.1516,12995.0
1698921846978.7273,12973.0
1698921846999.303,12955.0
1698921847019.879,12952.0
1698921847040.4546,12959.0
1698921847061.0305,12979.0
1698921847081.606,12994.0
1698921847102.182,13009.0
1698921847122.7576,13030.0
1698921847143.3333,13045.0
1698921847163.9092,13060.0
1698921847184.4849,13077.0
1698921847205.0603,13077.0
1698921847225.6365,13076.0
1698921847246.2122,13084.0
1698921847266.7878,13076.0
1698921847287.3635,13082.0
1698921847307.9397,13072.0
1698921847328.5151,13063.0
1698921847349.0908,13054.0
1698921847369.6667,13048.0
1698921847390.2424,13046.0
1698921847410.818,13042.0
1698921847431.394,13030.0
1698921847451.9695,13017.0
1698921847472.5454,13012.0
1698921847493.121,13001.0
1698921847513.697,13003.0
1698921847534.2727,12996.0
1698921847554.8484,12995.0
1698921847575.4243,12971.0
1698921847616.5757,12936.0
1698921847637.1516,12925.0
1698921847657.7273,12914.0
1698921847678.303,12901.0
1698921847698.879,12869.0
1698921847719.4546,12859.0
1698921847740.0305,12843.0
1698921847760.606,12827.0
1698921847781.182,12808.0
1698921847801.7576,12797.0
1698921847822.3333,12786.0
1698921847842.9092,12772.0
1698921847863.4849,12760.0
1698921847884.0603,12747.0
1698921847904.6365,12740.0
1698921847925.2122,12731.0
1698921847945.7878,12707.0
1698921847966.3635,12701.0
1698921847986.9397,12674.0
1698921848007.5151,12656.0
1698921848028.0908,12650.0
1698921848048.6667,12643.0
1698921848069.2424,12637.0
1698921848089.818,12633.0
1698921848110.394,12653.0
1698921848130.9695,12675.0
1698921848151.5454,12695.0
1698921848172.121,12705.0
1698921848192.697,12701.0
1698921848213.2727,12705.0
1698921848233.8484,12706.0
1698921848254.4243,12701.0
1698921848295.5757,12711.0
1698921848316.1516,12707.0
1698921848336.7273,12705.0
1698921848357.303,12704.0
1698921848377.879,12723.0
1698921848398.4546,12714.0
1698921848419.0305,12724.0
1698921848439.606,12729.0
1698921848460.182,12757.0
1698921848480.7576,12757.0
1698921848501.3333,12758.0
1698921848521.9092,12782.0
1698921848542.4849,12785.0
1698921848563.0603,12792.0
1698921848583.6365,12797.0
1698921848604.2122,12796.0
1698921848624.7878,12833.0
1698921848645.3635,12830.0
1698921848665.9397,12849.0
1698921848686.5151,12866.0
1698921848707.0908,12860.0
1698921848727.6667,12862.0
1698921848748.2424,12867.0
1698921848768.818,12870.0
1698921848789.394,12876.0
1698921848809.9695,12880.0
1698921848830.5454,12888.0
1698921848851.121,12877.0
1698921848871.697,12872.0
1698921848892.2727,12858.0
1698921848912.8484,12843.0
1698921848933.4243,12851.0
1698921848974.5757,12830.0
1698921848995.1516,12833.0
1698921849015.7273,12843.0
1698921849036.303,12850.0
1698921849056.879,12862.0
1698921849077.4546,12874.0
1698921849098.0305,12898.0
1698921849118.606,12922.0
1698921849139.182,12947.0
1698921849159.7576,12965.0
1698921849180.3333,12986.0
1698921849200.9092,12997.0
1698921849221.4849,13009.0
1698921849242.0603,13018.0
1698921849262.6365,13024.0
1698921849283.2122,13026.0
1698921849303.7878,13038.0
1698921849324.3635,13042.0
1698921849344.9397,13053.0
1698921849365.5151,13046.0
1698921849386.0908,13056.0
1698921849406.6667,13055.0
1698921849427.2424,13053.0
1698921849447.818,13055.0
1698921849468.394,13059.0
1698921849488.9695,13058.0
1698921849509.5454,13068.0
1698921849530.121,13068.0
1698921849550.697,13071.0
1698921849571.2727,13080.0
1698921849591.8484,13078.0
1698921849612.4243,13094.0
1698921849653.5757,13124.0
1698921849674.1516,13129.0
1698921849694.7273,13151.0
1698921849715.303,13161.0
1698921849735.879,13169.0
1698921849756.4546,13177.0
1698921849777.0305,13177.0
1698921849797.606,13179.0
1698921849818.182,13185.0
1698921849838.7576,13178.0
1698921849859.3333,13171.0
1698921849879.9092,13154.0
1698921849900.4849,13153.0
1698921849921.0603,13144.0
1698921849941.6365,13145.0
1698921849962.2122,13136.0
1698921849982.7878,13142.0
1698921850003.3635,13144.0
1698921850023.9397,13143.0
1698921850044.5151,13152.0
1698921850065.0908,13146.0
1698921850085.6667,13149.0
1698921850106.2424,13159.0
1698921850126.818,13160.0
1698921850147.394,13162.0
1698921850167.9695,13156.0
1698921850188.5454,13167.0
1698921850209.121,13168.0
1698921850229.697,13180.0
1698921850250.2727,13180.0
1698921850270.8484,13185.0
1698921850291.4243,13168.0
1698921850332.5757,13179.0
1698921850353.1516,13180.0
1698921850373.7273,13175.0
1698921850394.303,13154.0
1698921850414.879,13148.0
1698921850435.4546,13142.0
1698921850456.0305,13129.0
1698921850476.606,13120.0
1698921850497.182,13110.0
1698921850517.7576,13088.0
1698921850538.3333,13074.0
1698921850558.9092,13068.0
1698921850579.4849,13058.0
1698921850600.0603,13055.0
1698921850620.6365,13046.0
1698921850641.2122,13045.0
1698921850661.7878,13035.0
1698921850682.3635,13037.0
1698921850702.9397,13046.0
1698921850723.5151,13035.0
1698921850744.0908,13042.0
1698921850764.6667,13053.0
1698921850785.2424,13040.0
1698921850805.818,13050.0
1698921850826.394,13049.0
1698921850846.9695,13050.0
1698921850867.5454,13051.0
1698921850888.121,13041.0
1698921850908.697,13030.0
1698921850929.2727,13028.0
1698921850949.8484,13022.0
1698921850970.4243,13003.0
1698921851011.5757,12994.0
1698921851032.1516,12984.0
1698921851052.7273,12984.0
1698921851073.303,12973.0
1698921851093.879,12958.0
1698921851114.4546,12953.0
1698921851135.0305,12963.0
1698921851155.606,12956.0
1698921851176.182,12959.0
1698921851196.7576,12949.0
1698921851217.3333,12951.0
1698921851237.9092,12952.0
1698921851258.4849,12949.0
1698921851279.0603,12954.0
1698921851299.6365,12949.0
1698921851320.2122,12952.0
1698921851340.7878,12946.0
1698921851361.3635,12944.0
1698921851381.9397,12943.0
1698921851402.5151,12936.0
1698921851423.0908,12941.0
1698921851443.6667,12928.0
1698921851464.2424,12933.0
1698921851484.818,12922.0
1698921851505.394,12931.0
1698921851525.9695,12915.0
1698921851546.5454,12933.0
1698921851567.121,12918.0
1698921851587.697,12915.0
1698921851608.2727,12917.0
1698921851628.8484,12905.0
1698921851649.4243,12902.0
1698921851690.5757,12899.0
1698921851711.1516,12897.0
1698921851731.7273,12875.0
1698921851752.303,12861.0
1698921851772.879,12847.0
1698921851793.4546,12826.0
1698921851814.0305,12813.0
1698921851834.606,12810.0
1698921851855.182,12805.0
1698921851875.7576,12800.0
1698921851896.3333,12798.0
1698921851916.9092,12794.0
1698921851937.4849,12793.0
1698921851958.0603,12788.0
1698921851978.6365,12787.0
1698921851999.2122,12778.0
1698921852019.7878,12784.0
1698921852040.3635,12785.0
1698921852060.9397,12792.0
1698921852081.5151,12792.0
1698921852102.0908,12808.0
1698921852122.6667,12818.0
1698921852143.2424,12832.0
1698921852163.818,12841.0
1698921852184.394,12839.0
1698921852204.9695,12843.0
1698921852225.5454,12837.0
1698921852246.121,12832.0
1698921852266.697,12829.0
1698921852287.2727,12834.0
1698921852307.8484,12844.0
1698921852328.4243,12843.0
1698921852369.5757,12862.0
1698921852390.1516,12864.0
1698921852410.7273,12881.0
1698921852431.303,12886.0
1698921852451.879,12886.0
1698921852472.4546,12891.0
1698921852493.0305,12883.0
1698921852513.606,12896.0
1698921852534.182,12900.0
1698921852554.7576,12907.0
1698921852575.3333,12906.0
1698921852595.9092,12913.0
1698921852616.4849,12915.0
1698921852637.0603,12915.0
1698921852657.6365,12924.0
1698921852678.2122,12926.0
1698921852698.7878,12912.0
1698921852719.3635,12918.0
1698921852739.9397,12901.0
1698921852760.5151,12883.0
1698921852781.0908,12886.0
1698921852801.6667,12882.0
1698921852822.2424,12885.0
1698921852842.818,12885.0
1698921852863.394,12883.0
1698921852883.9695,12864.0
1698921852904.5454,12860.0
1698921852925.121,12835.0
1698921852945.697,12825.0
1698921852966.2727,12802.0
1698921852986.8484,12803.0
1698921853007.4243,12808.0
1698921853048.5757,12817.0
1698921853069.1516,12834.0
1698921853089.7273,12855.0
1698921853110.303,12882.0
1698921853130.879,12905.0
1698921853151.4546,12924.0
1698921853172.0305,12938.0
1698921853192.606,12958.0
1698921853213.182,12968.0
1698921853233.7576,12972.0
1698921853254.3333,12967.0
1698921853274.9092,12964.0
1698921853295.4849,12966.0
1698921853316.0603,12962.0
1698921853336.6365,12960.0
1698921853357.2122,12959.0
1698921853377.7878,12961.0
1698921853398.3635,12963.0
1698921853418.9397,12961.0
1698921853439.5151,12964.0
1698921853460.0908,12963.0
1698921853480.6667,12967.0
1698921853501.2424,12968.0
1698921853521.818,12959.0
1698921853542.394,12974.0
1698921853562.9695,12978.0
1698921853583.5454,12974.0
1698921853604.121,12985.0
1698921853624.697,12995.0
1698921853645.2727,13002.0
1698921853665.8484,12996.0
1698921853686.4243,12990.0
1698921853727.5757,12964.0
1698921853748.1516,12965.0
1698921853768.7273,12956.0
1698921853789.303,12945.0
1698921853809.879,12938.0
1698921853830.4546,12927.0
1698921853851.0305,12923.0
1698921853871.606,12932.0
1698921853892.182,12933.0
1698921853912.7576,12946.0
1698921853933.3333,12960.0
1698921853953.9092,12966.0
1698921853974.4849,12974.0
1698921853995.0603,12974.0
1698921854015.6365,12956.0
1698921854036.2122,12938.0
1698921854056.7878,12912.0
1698921854077.3635,12923.0
1698921854097.9397,12929.0
1698921854118.5151,12939.0
1698921854139.0908,12951.0
1698921854159.6667,12968.0
1698921854180.2424,12972.0
1698921854200.818,12987.0
1698921854221.394,13004.0
1698921854241.9695,12997.0
1698921854262.5454,13008.0
1698921854283.121,13016.0
1698921854303.697,13009.0
1698921854324.2727,13010.0
1698921854344.8484,13024.0
1698921854365.4243,13034.0
1698921854406.5757,13057.0
1698921854427.1516,13070.0
1698921854447.7273,13082.0
1698921854468.303,13087.0
1698921854488.879,13100.0
1698921854509.4546,13096.0
1698921854530.0305,13099.0
1698921854550.606,13089.0
1698921854571.182,13087.0
1698921854591.7576,13074.0
1698921854612.3333,13061.0
1698921854632.9092,13047.0
1698921854653.4849,13043.0
1698921854674.0603,13030.0
1698921854694.6365,13017.0
1698921854715.2122,13004.0
1698921854735.7878,12998.0
1698921854756.3635,12984.0
1698921854776.9397,12964.0
1698921854797.5151,12953.0
1698921854818.0908,12943.0
1698921854838.6667,12933.0
1698921854859.2424,12916.0
1698921854879.818,12914.0
1698921854900.394,12905.0
1698921854920.9695,12887.0
1698921854941.5454,12874.0
1698921854962.121,12867.0
1698921854982.697,12856.0
1698921855003.2727,12849.0
1698921855023.8484,12856.0
1698921855044.4243,12866.0
1698921855085.5757,12901.0
1698921855106.1516,12913.0
1698921855126.7273,12930.0
1698921855147.303,12944.0
1698921855167.879,12956.0
1698921855188.4546,12954.0
1698921855209.0305,12962.0
1698921855229.606,12966.0
1698921855250.182,12973.0
1698921855270.7576,12974.0
1698921855291.3333,12980.0
1698921855311.9092,12990.0
1698921855332.4849,12995.0
1698921855353.0603,13002.0
1698921855373.6365,13002.0
1698921855394.2122,13008.0
1698921855414.7878,13020.0
1698921855435.3635,13027.0
1698921855455.9397,13041.0
1698921855476.5151,13047.0
1698921855497.0908,13051.0
1698921855517.6667,13065.0
1698921855538.2424,13070.0
1698921855558.818,13087.0
1698921855579.394,13098.0
1698921855599.9695,13104.0
1698921855620.5454,13113.0
1698921855641.121,13104.0
1698921855661.697,13096.0
1698921855682.2727,13077.0
1698921855702.8484,13057.0
1698921855723.4243,13036.0
1698921855764.5757,12987.0
1698921855785.1516,12969.0
1698921855805.7273,12958.0
1698921855826.303,12947.0
1698921855846.879,12944.0
1698921855867.4546,12941.0
1698921855888.0305,12943.0
1698921855908.606,12950.0
1698921855929.182,12948.0
1698921855949.7576,12947.0
1698921855970.3333,12952.0
1698921855990.9092,12974.0
1698921856011.4849,12981.0
1698921856032.0603,13000.0
1698921856052.6365,13017.0
1698921856073.2122,13033.0
1698921856093.7878,13033.0
1698921856114.3635,13055.0
1698921856134.9397,13043.0
1698921856155.5151,13047.0
1698921856176.0908,13048.0
1698921856196.6667,13049.0
1698921856217.2424,13051.0
1698921856237.818,13046.0
1698921856258.394,13059.0
1698921856278.9695,13063.0
1698921856299.5454,13069.0
1698921856320.121,13082.0
1698921856340.697,13092.0
1698921856361.2727,13100.0
1698921856381.8484,13112.0
1698921856402.4243,13115.0
1698921856443.5757,13118.0
1698921856464.1516,13114.0
1698921856484.7273,13115.0
1698921856505.303,13091.0
1698921856525.879,13078.0
1698921856546.4546,13076.0
1698921856567.0305,13067.0
1698921856587.606,13070.0
1698921856608.182,13076.0
1698921856628.7576,13062.0
1698921856649.3333,13050.0
1698921856669.9092,13031.0
1698921856690.4849,13035.0
1698921856711.0603,13021.0
1698921856731.6365,13005.0
1698921856752.2122,12980.0
1698921856772.7878,12975.0
1698921856793.3635,12950.0
1698921856813.9397,12938.0
1698921856834.5151,12919.0
1698921856855.0908,12906.0
1698921856875.6667,12895.0
1698921856896.2424,12892.0
1698921856916.818,12890.0
1698921856937.394,12897.0
1698921856957.9695,12905.0
1698921856978.5454,12921.0
1698921856999.121,12930.0
1698921857019.697,12957.0
1698921857040.2727,12975.0
1698921857060.8484,12995.0
1698921857081.4243,13012.0
1698921857122.5757,13022.0
1698921857143.1516,13032.0
1698921857163.7273,13037.0
1698921857184.303,13039.0
1698921857204.879,13058.0
1698921857225.4546,13055.0
1698921857246.0305,13066.0
1698921857266.606,13077.0
1698921857287.182,13095.0
1698921857307.7576,13117.0
1698921857328.3333,13123.0
1698921857348.9092,13136.0
1698921857369.4849,13155.0
1698921857390.0603,13155.0
1698921857410.6365,13156.0
1698921857431.2122,13149.0
1698921857451.7878,13132.0
1698921857472.3635,13119.0
1698921857492.9397,13109.0
1698921857513.5151,13100.0
1698921857534.0908,13091.0
1698921857554.6667,13081.0
1698921857575.2424,13074.0
1698921857595.818,13058.0
1698921857616.394,13052.0
1698921857636.9695,13036.0
1698921857657.5454,13018.0
1698921857678.121,13008.0
1698921857698.697,12983.0
1698921857719.2727,12962.0
1698921857739.8484,12941.0
1698921857760.4243,12919.0
1698921857801.5757,12877.0
1698921857822.1516,12865.0
1698921857842.7273,12858.0
1698921857863.303,12855.0
1698921857883.879,12864.0
1698921857904.4546,12859.0
1698921857925.0305,12871.0
1698921857945.606,12882.0
1698921857966.182,12912.0
1698921857986.7576,12931.0
1698921858007.3333,12957.0
1698921858027.9092,12990.0
1698921858048.4849,13001.0
1698921858069.0603,13018.0
1698921858089.6365,13043.0
1698921858110.2122,13043.0
1698921858130.7878,13057.0
1698921858151.3635,13066.0
1698921858171.9397,13083.0
1698921858192.5151,13101.0
1698921858213.0908,13125.0
1698921858233.6667,13137.0
1698921858254.2424,13153.0
1698921858274.818,13170.0
1698921858295.394,13189.0
1698921858315.9695,13204.0
1698921858336.5454,13217.0
1698921858357.121,13232.0
1698921858377.697,13246.0
1698921858398.2727,13255.0
1698921858418.8484,13259.0
1698921858439.4243,13269.0
1698921858480.5757,13286.0
1698921858501.1516,13297.0
1698921858521.7273,13297.0
1698921858542.303,13308.0
1698921858562.879,13307.0
1698921858583.4546,13306.0
1698921858604.0305,13300.0
1698921858624.606,13297.0
1698921858645.182,13281.0
1698921858665.7576,13267.0
1698921858686.3333,13254.0
1698921858706.9092,13231.0
1698921858727.4849,13217.0
1698921858748.0603,13186.0
1698921858768.6365,13168.0
1698921858789.2122,13158.0
1698921858809.7878,13136.0
1698921858830.3635,13146.0
1698921858850.9397,13138.0
1698921858871.5151,13157.0
1698921858892.0908,13167.0
1698921858912.6667,13190.0
1698921858933.2424,13210.0
1698921858953.818,13223.0
1698921858974.394,13231.0
1698921858994.9695,13244.0
1698921859015.5454,13254.0
1698921859036.121,13259.0
1698921859056.697,13281.0
1698921859077.2727,13279.0
1698921859097.8484,13280.0
1698921859118.4243,13293.0
1698921859159.5757,13312.0
1698921859180.1516,13336.0
1698921859200.7273,13316.0
1698921859221.303,13337.0
1698921859241.879,13359.0
1698921859262.4546,13342.0
1698921859283.0305,13362.0
1698921859303.606,13374.0
1698921859324.182,13377.0
1698921859344.7576,13399.0
1698921859365.3333,13409.0
1698921859385.9092,13424.0
1698921859406.4849,13434.0
1698921859427.0603,13437.0
1698921859447.6365,13450.0
1698921859468.2122,13463.0
1698921859488.7878,13462.0
1698921859509.3635,13473.0
1698921859529.9397,13462.0
1698921859550.5151,13454.0
1698921859571.0908,13442.0
1698921859591.6667,13425.0
1698921859612.2424,13407.0
1698921859632.818,13387.0
1698921859653.394,13365.0
1698921859673.9695,13343.0
1698921859694.5454,13331.0
1698921859715.121,13310.0
1698921859735.697,13298.0
1698921859756.2727,13291.0
1698921859776.8484,13293.0
1698921859797.4243,13299.0
1698921859838.5757,13312.0
1698921859859.1516,13317.0
1698921859879.7273,13323.0
1698921859900.303,13338.0
1698921859920.879,13338.0
1698921859941.4546,13354.0
1698921859962.0305,13361.0
1698921859982.606,13370.0
1698921860003.182,13375.0
1698921860023.7576,13379.0
1698921860044.3333,13380.0
1698921860064.9092,13389.0
1698921860085.4849,13392.0
1698921860106.0603,13396.0
1698921860126.6365,13403.0
1698921860147.2122,13405.0
1698921860167.7878,13425.0
1698921860188.3635,13425.0
1698921860208.9397,13438.0
1698921860229.5151,13447.0
1698921860250.0908,13456.0
1698921860270.6667,13473.0
1698921860291.2424,13474.0
1698921860311.818,13471.0
1698921860332.394,13484.0
1698921860352.9695,13483.0
1698921860373.5454,13477.0
1698921860394.121,13487.0
1698921860414.697,13472.0
1698921860435.2727,13485.0
1698921860455.8484,13479.0
1698921860476.4243,13478.0
1698921860517.5757,13446.0
1698921860538.1516,13431.0
1698921860558.7273,13405.0
1698921860579.303,13389.0
1698921860599.879,13382.0
1698921860620.4546,13359.0
1698921860641.0305,13350.0
1698921860661.606,13329.0
1698921860682.182,13337.0
1698921860702.7576,13320.0
1698921860723.3333,13310.0
1698921860743.9092,13321.0
1698921860764.4849,13307.0
1698921860785.0603,13292.0
1698921860805.6365,13300.0
1698921860826.2122,13300.0
1698921860846.7878,13309.0
1698921860867.3635,13308.0
1698921860887.9397,13318.0
1698921860908.5151,13329.0
1698921860929.0908,13346.0
1698921860949.6667,13356.0
1698921860970.2424,13356.0
1698921860990.818,13359.0
1698921861011.394,13367.0
1698921861031.9695,13375.0
1698921861052.5454,13379.0
1698921861073.121,13375.0
1698921861093.697,13372.0
1698921861114.2727,13372.0
1698921861134.8484,13368.0
1698921861155.4243,13372.0
1698921861196.5757,13382.0
1698921861217.1516,13392.0
1698921861237.7273,13393.0
1698921861258.303,13395.0
1698921861278.879,13402.0
1698921861299.4546,13406.0
1698921861320.0305,13403.0
1698921861340.606,13401.0
1698921861361.182,13413.0
1698921861381.7576,13404.0
1698921861402.3333,13408.0
1698921861422.9092,13405.0
1698921861443.4849,13418.0
1698921861464.0603,13428.0
1698921861484.6365,13429.0
1698921861505.2122,13444.0
1698921861525.7878,13434.0
1698921861546.3635,13439.0
1698921861566.9397,13437.0
1698921861587.5151,13440.0
1698921861608.0908,13441.0
1698921861628.6667,13444.0
1698921861649.2424,13444.0
1698921861669.818,13441.0
1698921861690.394,13446.0
1698921861710.9695,13450.0
1698921861731.5454,13461.0
1698921861752.121,13476.0
1698921861772.697,13488.0
1698921861793.2727,13504.0
1698921861813.8484,13503.0
1698921861834.4243,13526.0
1698921861875.5757,13570.0
1698921861896.1516,13581.0
1698921861916.7273,13597.0
1698921861937.303,13618.0
1698921861957.879,13624.0
1698921861978.4546,13637.0
1698921861999.0305,13637.0
1698921862019.606,13662.0
1698921862040.182,13669.0
1698921862060.7576,13682.0
1698921862081.3333,13690.0
1698921862101.9092,13701.0
1698921862122.4849,13706.0
1698921862143.0603,13704.0
1698921862163.6365,13719.0
1698921862184.2122,13726.0
1698921862204.7878,13735.0
1698921862225.3635,13742.0
1698921862245.9397,13745.0
1698921862266.5151,13751.0
1698921862287.0908,13758.0
1698921862307.6667,13772.0
1698921862328.2424,13766.0
1698921862348.818,13777.0
1698921862369.394,13783.0
1698921862389.9695,13787.0
1698921862410.5454,13803.0
1698921862431.121,13799.0
1698921862451.697,13817.0
1698921862472.2727,13812.0
1698921862492.8484,13816.0
1698921862513.4243,13812.0
1698921862554.5757,13826.0
1698921862575.1516,13826.0
1698921862595.7273,13831.0
1698921862616.303,13841.0
1698921862636.879,13839.0
1698921862657.4546,13837.0
1698921862678.0305,13836.0
1698921862698.606,13839.0
1698921862719.182,13845.0
1698921862739.7576,13847.0
1698921862760.3333,13845.0
1698921862780.9092,13850.0
1698921862801.4849,13854.0
1698921862822.0603,13843.0
1698921862842.6365,13847.0
1698921862863.2122,13852.0
1698921862883.7878,13853.0
1698921862904.3635,13863.0
1698921862924.9397,13856.0
1698921862945.5151,13869.0
1698921862966.0908,13866.0
1698921862986.6667,13857.0
1698921863007.2424,13861.0
1698921863027.818,13855.0
1698921863048.394,13852.0
1698921863068.9695,13856.0
1698921863089.5454,13839.0
1698921863110.121,13826.0
1698921863130.697,13826.0
1698921863151.2727,13820.0
1698921863171.8484,13811.0
1698921863192.4243,13808.0
1698921863233.5757,13793.0
1698921863254.1516,13786.0
1698921863274.7273,13773.0
1698921863295.303,13766.0
1698921863315.879,13765.0
1698921863336.4546,13756.0
1698921863357.0305,13757.0
1698921863377.606,13746.0
1698921863398.182,13737.0
1698921863418.7576,13741.0
1698921863439.3333,13733.0
1698921863459.9092,13729.0
1698921863480.4849,13733.0
1698921863501.0603,13724.0
1698921863521.6365,13725.0
1698921863542.2122,13713.0
1698921863562.7878,13714.0
1698921863583.3635,13708.0
1698921863603.9397,13702.0
1698921863624.5151,13696.0
1698921863645.0908,13689.0
1698921863665.6667,13676.0
1698921863686.2424,13680.0
1698921863706.818,13665.0
1698921863727.394,13665.0
1698921863747.9695,13656.0
1698921863768.5454,13661.0
1698921863789.121,13645.0
1698921863809.697,13643.0
1698921863830.2727,13652.0
1698921863850.8484,13643.0
1698921863871.4243,13643.0
1698921863912.5757,13635.0
1698921863933.1516,13639.0
1698921863953.7273,13634.0
1698921863974.303,13631.0
1698921863994.879,13630.0
1698921864015.4546,13629.0
1698921864036.0305,13625.0
1698921864056.606,13633.0
1698921864077.182,13636.0
1698921864097.7576,13642.0
1698921864118.3333,13641.0
1698921864138.9092,13638.0
1698921864159.4849,13643.0
1698921864180.0603,13645.0
1698921864200.6365,13655.0
1698921864221.2122,13655.0
1698921864241.7878,13651.0
1698921864262.3635,13652.0
1698921864282.9397,13665.0
1698921864303.5151,13660.0
1698921864324.0908,13677.0
1698921864344.6667,13684.0
1698921864365.2424,13682.0
1698921864385.818,13658.0
1698921864406.394,13670.0
1698921864426.9695,13665.0
1698921864447.5454,13672.0
1698921864468.121,13676.0
1698921864488.697,13672.0
1698921864509.2727,13679.0
1698921864529.8484,13689.0
1698921864550.4243,13673.0
1698921864591.5757,13691.0
1698921864612.1516,13691.0
1698921864632.7273,13685.0
1698921864653.303,13692.0
1698921864673.879,13687.0
1698921864694.4546,13686.0
1698921864715.0305,13683.0
1698921864735.606,13675.0
1698921864756.182,13680.0
1698921864776.7576,13683.0
1698921864797.3333,13684.0
1698921864817.9092,13685.0
1698921864838.4849,13682.0
1698921864859.0603,13691.0
1698921864879.6365,13691.0
1698921864900.2122,13699.0
1698921864920.7878,13693.0
1698921864941.3635,13687.0
1698921864961.9397,13693.0
1698921864982.5151,13688.0
1698921865003.0908,13682.0
1698921865023.6667,13681.0
1698921865044.2424,13677.0
1698921865064.818,13675.0
1698921865085.394,13668.0
1698921865105.9695,13654.0
1698921865126.5454,13651.0
1698921865147.121,13644.0
1698921865167.697,13637.0
1698921865188.2727,13632.0
1698921865208.8484,13636.0
1698921865229.4243,13620.0
1698921865270.5757,13614.0
1698921865291.1516,13604.0
1698921865311.7273,13599.0
1698921865332.303,13590.0
1698921865352.879,13587.0
1698921865373.4546,13578.0
1698921865394.0305,13575.0
1698921865414.606,13573.0
1698921865435.182,13554.0
1698921865455.7576,13554.0
1698921865476.3333,13563.0
1698921865496.9092,13545.0
1698921865517.4849,13539.0
1698921865538.0603,13536.0
1698921865558.6365,13534.0
1698921865579.2122,13529.0
1698921865599.7878,13515.0
1698921865620.3635,13507.0
1698921865640.9397,13507.0
1698921865661.5151,13505.0
1698921865682.0908,13481.0
1698921865702.6667,13476.0
1698921865723.2424,13472.0
1698921865743.818,13469.0
1698921865764.394,13457.0
1698921865784.9695,13456.0
1698921865805.5454,13451.0
1698921865826.121,13442.0
1698921865846.697,13435.0
1698921865867.2727,13427.0
1698921865887.8484,13416.0
1698921865908.4243,13424.0
1698921865949.5757,13404.0
1698921865970.1516,13394.0
1698921865990.7273,13402.0
1698921866011.303,13383.0
1698921866031.879,13382.0
1698921866052.4546,13379.0
1698921866073.0305,13380.0
1698921866093.606,13372.0
1698921866114.182,13362.0
1698921866134.7576,13358.0
1698921866155.3333,13365.0
1698921866175.9092,13348.0
1698921866196.4849,13337.0
1698921866217.0603,13344.0
1698921866237.6365,13337.0
1698921866258.2122,13336.0
1698921866278.7878,13336.0
1698921866299.3635,13327.0
1698921866319.9397,13322.0
1698921866340.5151,13323.0
1698921866361.0908,13321.0
1698921866381.6667,13316.0
1698921866402.2424,13319.0
1698921866422.818,13306.0
1698921866443.394,13306.0
1698921866463.9695,13310.0
1698921866484.5454,13296.0
1698921866505.121,13299.0
1698921866525.697,13287.0
1698921866546.2727,13282.0
1698921866566.8484,13273.0
1698921866587.4243,13271.0
1698921866628.5757,13255.0
1698921866649.1516,13249.0
1698921866669.7273,13243.0
1698921866690.303,13228.0
1698921866710.879,13222.0
1698921866731.4546,13211.0
1698921866752.0305,13208.0
1698921866772.606,13207.0
1698921866793.182,13198.0
1698921866813.7576,13200.0
1698921866834.3333,13185.0
1698921866854.9092,13182.0
1698921866875.4849,13173.0
1698921866896.0603,13162.0
1698921866916.6365,13165.0
1698921866937.2122,13164.0
1698921866957.7878,13151.0
1698921866978.3635,13148.0
1698921866998.9397,13135.0
1698921867019.5151,13126.0
1698921867040.0908,13123.0
1698921867060.6667,13109.0
1698921867081.2424,13090.0
1698921867101.818,13086.0
1698921867122.394,13070.0
1698921867142.9695,13059.0
1698921867163.5454,13049.0
1698921867184.121,13033.0
1698921867204.697,13023.0
1698921867225.2727,13009.0
1698921867245.8484,13003.0
1698921867266.4243,12988.0
1698921867307.5757,12958.0
1698921867328.1516,12948.0
1698921867348.7273,12941.0
1698921867369.303,12925.0
1698921867389.879,12913.0
1698921867410.4546,12913.0
1698921867431.0305,12903.0
1698921867451.606,12894.0
1698921867472.182,12885.0
1698921867492.7576,12872.0
1698921867513.3333,12878.0
1698921867533.9092,12866.0
1698921867554.4849,12862.0
1698921867575.0603,12847.0
1698921867595.6365,12854.0
1698921867616.2122,12842.0
1698921867636.7878,12843.0
1698921867657.3635,12832.0
1698921867677.9397,12826.0
1698921867698.5151,12825.0
1698921867719.0908,12822.0
1698921867739.6667,12815.0
1698921867760.2424,12811.0
1698921867780.818,12800.0
1698921867801.394,12784.0
1698921867821.9695,12771.0
1698921867842.5454,12760.0
1698921867863.121,12751.0
1698921867883.697,12730.0
1698921867904.2727,12719.0
1698921867924.8484,12696.0
1698921867945.4243,12695.0
1698921867986.5757,12657.0
1698921868007.1516,12654.0
1698921868027.7273,12645.0
1698921868048.303,12631.0
1698921868068.879,12619.0
1698921868089.4546,12605.0
1698921868110.0305,12599.0
1698921868130.606,12592.0
1698921868151.182,12584.0
1698921868171.7576,12566.0
1698921868192.3333,12558.0
1698921868212.9092,12550.0
1698921868233.4849,12549.0
1698921868254.0603,12529.0
1698921868274.6365,12512.0
1698921868295.2122,12508.0
1698921868315.7878,12515.0
1698921868336.3635,12514.0
1698921868356.9397,12516.0
1698921868377.5151,12503.0
1698921868398.0908,12498.0
1698921868418.6667,12504.0
1698921868439.2424,12501.0
1698921868459.818,12492.0
1698921868480.394,12478.0
1698921868500.9695,12492.0
1698921868521.5454,12474.0
1698921868542.121,12471.0
1698921868562.697,12459.0
1698921868583.2727,12462.0
1698921868603.8484,12441.0
1698921868624.4243,12438.0
1698921868665.5757,12428.0
1698921868686.1516,12426.0
1698921868706.7273,12427.0
1698921868727.303,12422.0
1698921868747.879,12427.0
1698921868768.4546,12426.0
1698921868789.0305,12428.0
1698921868809.606,12434.0
1698921868830.182,12445.0
1698921868850.7576,12449.0
1698921868871.3333,12456.0
1698921868891.9092,12470.0
1698921868912.4849,12473.0
1698921868933.0603,12474.0
1698921868953.6365,12480.0
1698921868974.2122,12472.0
1698921868994.7878,12484.0
