timestamp,ppg
1698411730.0054429,10777.0
1698411730.025971,10779.0
1698411730.0464993,10781.0
1698411730.067027,10777.0
1698411730.0875556,10781.0
1698411730.108084,10780.0
1698411730.128612,10783.0
1698411730.1491404,10782.0
1698411730.1696684,10784.0
1698411730.1901968,10785.0
1698411730.210725,10784.0
1698411730.2312531,10783.0
1698411730.2517815,10782.0
1698411730.2723095,10778.0
1698411730.2928379,10780.0
1698411730.3133662,10782.0
1698411730.3338943,10782.0
1698411730.3544226,10781.0
1698411730.3749506,10780.0
1698411730.395479,10777.0
1698411730.416007,10775.0
1698411730.4365354,10775.0
1698411730.4570637,10767.0
1698411730.4775918,10774.0
1698411730.49812,10773.0
1698411730.5186481,10769.0
1698411730.5391765,10770.0
1698411730.5597048,10775.0
1698411730.5802329,10769.0
1698411730.6007612,10775.0
1698411730.6212893,10774.0
1698411730.6418176,10775.0
1698411730.662346,10775.0
1698411730.682874,10772.0
1698411730.7034023,10777.0
1698411730.7239304,10776.0
1698411730.7444587,10772.0
1698411730.7649868,10775.0
1698411730.785515,10779.0
1698411730.8060436,10775.0
1698411730.8265715,10775.0
1698411730.8471,10776.0
1698411730.8676279,10777.0
1698411730.8881562,10779.0
1698411730.9086845,10782.0
1698411730.9292126,10783.0
1698411730.949741,10780.0
1698411730.970269,10787.0
1698411730.9907973,10785.0
1698411731.0113256,10786.0
1698411731.0318537,10783.0
1698411731.052382,10788.0
1698411731.07291,10785.0
1698411731.0934384,10792.0
1698411731.1139665,10790.0
1698411731.1344948,10793.0
1698411731.155023,10787.0
1698411731.1755512,10788.0
1698411731.1960795,10786.0
1698411731.2166076,10781.0
1698411731.237136,10782.0
1698411731.2576642,10778.0
1698411731.2781923,10781.0
1698411731.2987206,10780.0
1698411731.3192487,10781.0
1698411731.339777,10778.0
1698411731.3603053,10780.0
1698411731.3808334,10783.0
1698411731.4013617,10781.0
1698411731.4218898,10786.0
1698411731.442418,10783.0
1698411731.4629462,10782.0
1698411731.4834745,10782.0
1698411731.504003,10774.0
1698411731.524531,10777.0
1698411731.545059,10783.0
1698411731.5655875,10783.0
1698411731.5861154,10785.0
1698411731.6066442,10787.0
1698411731.6271722,10791.0
1698411731.6477005,10789.0
1698411731.6682286,10792.0
1698411731.688757,10794.0
1698411731.7092853,10794.0
1698411731.7298133,10800.0
1698411731.7503417,10797.0
1698411731.7708697,10797.0
1698411731.791398,10793.0
1698411731.8119261,10794.0
1698411731.8324544,10797.0
1698411731.852983,10798.0
1698411731.8735108,10796.0
1698411731.8940392,10794.0
1698411731.9145672,10800.0
1698411731.9350958,10798.0
1698411731.9556239,10797.0
1698411731.9761522,10795.0
1698411731.9966803,10786.0
1698411732.0172086,10791.0
1698411732.0377367,10783.0
1698411732.058265,10778.0
1698411732.078793,10777.0
1698411732.0993214,10774.0
1698411732.1198494,10775.0
1698411732.1403778,10776.0
1698411732.1609058,10776.0
1698411732.1814342,10779.0
1698411732.2019625,10778.0
1698411732.2224905,10784.0
1698411732.2430189,10786.0
1698411732.263547,10788.0
1698411732.2840753,10793.0
1698411732.3046036,10793.0
1698411732.3251317,10791.0
1698411732.34566,10790.0
1698411732.366188,10799.0
1698411732.3867164,10799.0
1698411732.4072447,10797.0
1698411732.4277728,10796.0
1698411732.448301,10790.0
1698411732.4688292,10795.0
1698411732.4893575,10795.0
1698411732.5098855,10793.0
1698411732.5304139,10796.0
1698411732.550942,10797.0
1698411732.5714703,10796.0
1698411732.5919983,10796.0
1698411732.6125267,10798.0
1698411732.633055,10799.0
1698411732.6535833,10802.0
1698411732.6741111,10802.0
1698411732.6946397,10802.0
1698411732.7151675,10803.0
1698411732.735696,10804.0
1698411732.7562242,10800.0
1698411732.7767525,10803.0
1698411732.7972808,10812.0
1698411732.8178089,10802.0
1698411732.8383372,10804.0
1698411732.8588653,10800.0
1698411732.8793936,10795.0
1698411732.8999221,10793.0
1698411732.92045,10791.0
1698411732.9409785,10790.0
1698411732.9615064,10788.0
1698411732.982035,10784.0
1698411733.002563,10782.0
1698411733.023091,10786.0
1698411733.0436194,10782.0
1698411733.0641477,10783.0
1698411733.0846758,10789.0
1698411733.105204,10788.0
1698411733.1257322,10786.0
1698411733.1462605,10785.0
1698411733.1667886,10787.0
1698411733.187317,10784.0
1698411733.207845,10788.0
1698411733.2283733,10788.0
1698411733.2489016,10790.0
1698411733.2694297,10785.0
1698411733.289958,10785.0
1698411733.310486,10791.0
1698411733.3310144,10790.0
1698411733.3515427,10787.0
1698411733.3720708,10788.0
1698411733.392599,10787.0
1698411733.4131272,10791.0
1698411733.4336555,10791.0
1698411733.4541836,10795.0
1698411733.474712,10795.0
1698411733.4952402,10799.0
1698411733.5157683,10797.0
1698411733.5362966,10796.0
1698411733.5568247,10797.0
1698411733.577353,10798.0
1698411733.597881,10797.0
1698411733.6184094,10800.0
1698411733.6389375,10802.0
1698411733.6594658,10797.0
1698411733.6799939,10801.0
1698411733.7005224,10800.0
1698411733.7210503,10802.0
1698411733.7415788,10800.0
1698411733.762107,10800.0
1698411733.7826352,10795.0
1698411733.803163,10795.0
1698411733.8236916,10794.0
1698411733.84422,10793.0
1698411733.864748,10792.0
1698411733.8852763,10790.0
1698411733.9058044,10795.0
1698411733.9263327,10791.0
1698411733.946861,10793.0
1698411733.967389,10799.0
1698411733.9879174,10792.0
1698411734.0084455,10796.0
1698411734.028974,10796.0
1698411734.0495021,10792.0
1698411734.0700305,10796.0
1698411734.0905585,10804.0
1698411734.1110868,10800.0
1698411734.131615,10797.0
1698411734.152143,10798.0
1698411734.1726713,10797.0
1698411734.1931996,10797.0
1698411734.2137277,10803.0
1698411734.234256,10803.0
1698411734.254784,10805.0
1698411734.2753124,10806.0
1698411734.2958407,10809.0
1698411734.3163688,10804.0
1698411734.3368971,10805.0
1698411734.3574252,10804.0
1698411734.3779535,10807.0
1698411734.3984818,10808.0
1698411734.41901,10811.0
1698411734.4395382,10807.0
1698411734.4600663,10805.0
1698411734.4805946,10811.0
1698411734.5011227,10810.0
1698411734.521651,10803.0
1698411734.5421793,10805.0
1698411734.5627074,10800.0
1698411734.5832357,10805.0
1698411734.6037638,10801.0
1698411734.6242921,10800.0
1698411734.6448205,10798.0
1698411734.6653485,10796.0
1698411734.6858768,10799.0
1698411734.706405,10796.0
1698411734.726933,10796.0
1698411734.7474616,10797.0
1698411734.7679894,10800.0
1698411734.788518,10796.0
1698411734.8090458,10802.0
1698411734.8295743,10808.0
1698411734.8501022,10822.0
1698411734.8706307,10839.0
1698411734.8911593,10863.0
1698411734.9116874,10901.0
1698411734.9322157,10938.0
1698411734.9527438,10970.0
1698411734.973272,11007.0
1698411734.9938004,11035.0
1698411735.0143285,11054.0
1698411735.0348568,11083.0
1698411735.0553849,11104.0
1698411735.0759132,11113.0
1698411735.0964415,11130.0
1698411735.1169696,11144.0
1698411735.137498,11152.0
1698411735.158026,11157.0
1698411735.1785543,11159.0
1698411735.1990826,11162.0
1698411735.2196107,11164.0
1698411735.240139,11173.0
1698411735.260667,11183.0
1698411735.2811954,11194.0
1698411735.3017235,11209.0
1698411735.3222518,11227.0
1698411735.34278,11248.0
1698411735.3633082,11268.0
1698411735.3838365,11289.0
1698411735.4043646,11310.0
1698411735.424893,11332.0
1698411735.4454212,11356.0
1698411735.4659493,11373.0
1698411735.4864776,11395.0
1698411735.5070057,11420.0
1698411735.527534,11438.0
1698411735.548062,11459.0
1698411735.5685904,11480.0
1698411735.589119,11498.0
1698411735.6096468,11512.0
1698411735.630175,11529.0
1698411735.6507032,11545.0
1698411735.6712315,11558.0
1698411735.6917598,11571.0
1698411735.712288,11586.0
1698411735.7328162,11609.0
1698411735.7533443,11624.0
1698411735.7738726,11636.0
1698411735.794401,11641.0
1698411735.814929,11640.0
1698411735.8354573,11635.0
1698411735.8559854,11630.0
1698411735.8765137,11626.0
1698411735.8970416,11626.0
1698411735.91757,11617.0
1698411735.9380984,11612.0
1698411735.9586265,11613.0
1698411735.9791548,11600.0
1698411735.999683,11603.0
1698411736.0202112,11603.0
1698411736.0407395,11601.0
1698411736.0612676,11595.0
1698411736.081796,11591.0
1698411736.102324,11587.0
1698411736.1228523,11582.0
1698411736.1433804,11577.0
1698411736.1639087,11570.0
1698411736.184437,11569.0
1698411736.204965,11566.0
1698411736.2254934,11562.0
1698411736.2460215,11555.0
1698411736.2665498,11550.0
1698411736.287078,11551.0
1698411736.3076062,11542.0
1698411736.3281345,11536.0
1698411736.3486626,11529.0
1698411736.369191,11524.0
1698411736.3897192,11523.0
1698411736.4102473,11521.0
1698411736.4307756,11513.0
1698411736.4513037,11508.0
1698411736.471832,11505.0
1698411736.49236,11497.0
1698411736.5128884,11497.0
1698411736.5334167,11488.0
1698411736.5539448,11484.0
1698411736.5744731,11482.0
1698411736.5950012,11473.0
1698411736.6155295,11467.0
1698411736.636058,11464.0
1698411736.656586,11458.0
1698411736.6771145,11451.0
1698411736.6976423,11448.0
1698411736.718171,11438.0
1698411736.738699,11434.0
1698411736.759227,11431.0
1698411736.7797554,11423.0
1698411736.8002834,11423.0
1698411736.8208117,11420.0
1698411736.8413398,11408.0
1698411736.8618681,11407.0
1698411736.8823965,11396.0
1698411736.9029245,11400.0
1698411736.9234529,11391.0
1698411736.943981,11388.0
1698411736.9645092,11381.0
1698411736.9850376,11379.0
1698411737.0055656,11373.0
1698411737.026094,11371.0
1698411737.046622,11364.0
1698411737.0671504,11365.0
1698411737.0876787,11359.0
1698411737.1082067,11349.0
1698411737.128735,11348.0
1698411737.1492631,11339.0
1698411737.1697915,11335.0
1698411737.1903195,11330.0
1698411737.2108479,11325.0
1698411737.2313762,11320.0
1698411737.2519042,11314.0
1698411737.2724326,11305.0
1698411737.2929606,11293.0
1698411737.313489,11298.0
1698411737.334017,11290.0
1698411737.3545454,11294.0
1698411737.3750734,11289.0
1698411737.3956017,11282.0
1698411737.4161298,11278.0
1698411737.4366584,11273.0
1698411737.4571862,11269.0
1698411737.4777148,11268.0
1698411737.4982429,11258.0
1698411737.5187712,11251.0
1698411737.5392992,11248.0
1698411737.5598276,11242.0
1698411737.580356,11239.0
1698411737.600884,11231.0
1698411737.6214123,11229.0
1698411737.6419404,11224.0
1698411737.6624687,11219.0
1698411737.682997,11221.0
1698411737.703525,11221.0
1698411737.7240536,11214.0
1698411737.7445815,11212.0
1698411737.76511,11207.0
1698411737.785638,11204.0
1698411737.8061664,11199.0
1698411737.8266945,11197.0
1698411737.8472228,11192.0
1698411737.867751,11186.0
1698411737.888279,11185.0
1698411737.9088073,11184.0
1698411737.9293356,11174.0
1698411737.9498637,11176.0
1698411737.970392,11172.0
1698411737.99092,11164.0
1698411738.0114484,11157.0
1698411738.0319767,11152.0
1698411738.0525048,11152.0
1698411738.073033,11145.0
1698411738.0935612,11132.0
1698411738.1140895,11122.0
1698411738.1346178,11119.0
1698411738.155146,11107.0
1698411738.1756742,11103.0
1698411738.1962023,11096.0
1698411738.2167306,11093.0
1698411738.2372587,11093.0
1698411738.2577872,11088.0
1698411738.2783155,11081.0
1698411738.2988436,11074.0
1698411738.319372,11077.0
1698411738.3399,11068.0
1698411738.3604283,11069.0
1698411738.3809564,11061.0
1698411738.4014847,11057.0
1698411738.422013,11058.0
1698411738.4425411,11053.0
1698411738.4630692,11048.0
1698411738.4835978,11042.0
1698411738.5041256,11043.0
1698411738.5246542,11038.0
1698411738.545182,11036.0
1698411738.5657105,11032.0
1698411738.5862384,11029.0
1698411738.606767,11032.0
1698411738.6272953,11032.0
1698411738.6478233,11029.0
1698411738.6683517,11026.0
1698411738.6888797,11025.0
1698411738.709408,11028.0
1698411738.7299364,11025.0
1698411738.7504644,11017.0
1698411738.770993,11015.0
1698411738.7915208,11018.0
1698411738.8120492,11017.0
1698411738.8325775,11009.0
1698411738.8531058,11007.0
1698411738.8736339,11011.0
1698411738.8941622,11007.0
1698411738.9146903,11007.0
1698411738.9352186,11006.0
1698411738.9557467,11008.0
1698411738.976275,11008.0
1698411738.996803,11007.0
1698411739.0173314,11011.0
1698411739.0378594,11014.0
1698411739.0583878,11006.0
1698411739.078916,11002.0
1698411739.0994442,10995.0
1698411739.1199725,10988.0
1698411739.1405005,10980.0
1698411739.1610289,10969.0
1698411739.1815572,10964.0
1698411739.2020853,10958.0
1698411739.2226136,10947.0
1698411739.2431417,10945.0
1698411739.26367,10942.0
1698411739.284198,10942.0
1698411739.3047264,10935.0
1698411739.3252547,10937.0
1698411739.3457828,10930.0
1698411739.366311,10927.0
1698411739.3868392,10921.0
1698411739.4073675,10922.0
1698411739.4278958,10916.0
1698411739.4484239,10916.0
1698411739.468952,10912.0
1698411739.4894803,10910.0
1698411739.5100083,10910.0
1698411739.5305367,10906.0
1698411739.551065,10905.0
1698411739.5715933,10901.0
1698411739.5921211,10906.0
1698411739.6126497,10911.0
1698411739.6331775,10914.0
1698411739.653706,10914.0
1698411739.6742344,10908.0
1698411739.6947625,10908.0
1698411739.7152908,10907.0
1698411739.7358189,10905.0
1698411739.7563472,10901.0
1698411739.7768755,10905.0
1698411739.7974036,10896.0
1698411739.817932,10891.0
1698411739.83846,10886.0
1698411739.8589883,10883.0
1698411739.8795164,10880.0
1698411739.900045,10871.0
1698411739.920573,10866.0
1698411739.941101,10868.0
1698411739.9616294,10868.0
1698411739.9821577,10861.0
1698411740.0026858,10859.0
1698411740.023214,10857.0
1698411740.0437422,10862.0
1698411740.0642705,10859.0
1698411740.0847986,10858.0
1698411740.105327,10860.0
1698411740.1258552,10859.0
1698411740.1463833,10855.0
1698411740.1669116,10858.0
1698411740.1874397,10855.0
1698411740.207968,10858.0
1698411740.228496,10857.0
1698411740.2490244,10854.0
1698411740.2695527,10853.0
1698411740.2900808,10849.0
1698411740.310609,10853.0
1698411740.3311372,10848.0
1698411740.3516655,10847.0
1698411740.3721938,10850.0
1698411740.392722,10847.0
1698411740.4132502,10846.0
1698411740.4337783,10845.0
1698411740.4543066,10842.0
1698411740.474835,10839.0
1698411740.495363,10835.0
1698411740.5158913,10832.0
1698411740.5364194,10828.0
1698411740.5569477,10819.0
1698411740.5774758,10816.0
1698411740.598004,10807.0
1698411740.6185324,10806.0
1698411740.6390603,10798.0
1698411740.6595888,10799.0
1698411740.680117,10791.0
1698411740.7006452,10793.0
1698411740.7211735,10790.0
1698411740.7417016,10797.0
1698411740.76223,10801.0
1698411740.782758,10800.0
1698411740.8032863,10801.0
1698411740.8238146,10799.0
1698411740.8443427,10795.0
1698411740.864871,10794.0
1698411740.885399,10796.0
1698411740.9059274,10799.0
1698411740.9264555,10796.0
1698411740.9469838,10796.0
1698411740.9675121,10796.0
1698411740.9880402,10798.0
1698411741.0085685,10798.0
1698411741.0290966,10801.0
1698411741.049625,10799.0
1698411741.0701532,10794.0
1698411741.0906813,10784.0
1698411741.1112096,10786.0
1698411741.1317377,10796.0
1698411741.152266,10789.0
1698411741.1727943,10794.0
1698411741.1933224,10791.0
1698411741.2138507,10794.0
1698411741.2343788,10787.0
1698411741.2549071,10787.0
1698411741.2754352,10780.0
1698411741.2959635,10774.0
1698411741.3164918,10770.0
1698411741.33702,10774.0
1698411741.3575482,10766.0
1698411741.3780763,10765.0
1698411741.3986046,10764.0
1698411741.419133,10764.0
1698411741.439661,10760.0
1698411741.4601896,10763.0
1698411741.4807174,10768.0
1698411741.5012457,10769.0
1698411741.521774,10770.0
1698411741.5423021,10773.0
1698411741.5628304,10778.0
1698411741.5833585,10777.0
1698411741.603887,10787.0
1698411741.624415,10789.0
1698411741.6449435,10792.0
1698411741.6654718,10798.0
1698411741.6859999,10804.0
1698411741.7065282,10806.0
1698411741.7270563,10811.0
1698411741.7475846,10813.0
1698411741.768113,10811.0
1698411741.788641,10812.0
1698411741.8091693,10813.0
1698411741.8296974,10807.0
1698411741.8502257,10804.0
1698411741.870754,10801.0
1698411741.891282,10797.0
1698411741.9118104,10794.0
1698411741.9323385,10787.0
1698411741.9528668,10788.0
1698411741.9733949,10780.0
1698411741.9939232,10779.0
1698411742.0144515,10780.0
1698411742.0349796,10772.0
1698411742.055508,10767.0
1698411742.076036,10772.0
1698411742.0965643,10777.0
1698411742.1170924,10783.0
1698411742.1376207,10786.0
1698411742.158149,10787.0
1698411742.178677,10793.0
1698411742.1992052,10793.0
1698411742.2197337,10784.0
1698411742.2402618,10792.0
1698411742.26079,10788.0
1698411742.2813182,10787.0
1698411742.3018465,10785.0
1698411742.3223746,10783.0
1698411742.342903,10779.0
1698411742.3634312,10777.0
1698411742.3839593,10775.0
1698411742.4044876,10769.0
1698411742.4250157,10771.0
1698411742.445544,10775.0
1698411742.4660726,10779.0
1698411742.4866004,10779.0
1698411742.507129,10786.0
1698411742.5276568,10786.0
1698411742.548185,10786.0
1698411742.5687134,10784.0
1698411742.5892417,10782.0
1698411742.6097698,10776.0
1698411742.6302981,10777.0
1698411742.6508262,10779.0
1698411742.6713543,10770.0
1698411742.6918826,10766.0
1698411742.712411,10767.0
1698411742.732939,10758.0
1698411742.7534673,10762.0
1698411742.7739954,10754.0
1698411742.7945237,10753.0
1698411742.815052,10754.0
1698411742.83558,10754.0
1698411742.8561084,10756.0
1698411742.8766365,10750.0
1698411742.8971648,10752.0
1698411742.917693,10751.0
1698411742.9382212,10755.0
1698411742.9587495,10752.0
1698411742.9792776,10751.0
1698411742.999806,10752.0
1698411743.020334,10747.0
1698411743.0408623,10745.0
1698411743.0613906,10751.0
1698411743.0819187,10749.0
1698411743.102447,10751.0
1698411743.122975,10751.0
1698411743.1435034,10751.0
1698411743.1640315,10752.0
1698411743.1845598,10754.0
1698411743.205088,10751.0
1698411743.2256162,10752.0
1698411743.2461443,10757.0
1698411743.2666726,10758.0
1698411743.287201,10759.0
1698411743.3077292,10757.0
1698411743.328257,10758.0
1698411743.3487856,10764.0
1698411743.3693137,10762.0
1698411743.389842,10763.0
1698411743.4103703,10765.0
1698411743.4308984,10760.0
1698411743.4514267,10761.0
1698411743.4719548,10763.0
1698411743.4924831,10760.0
1698411743.5130117,10759.0
1698411743.5335395,10759.0
1698411743.554068,10761.0
1698411743.574596,10754.0
1698411743.5951245,10754.0
1698411743.6156523,10754.0
1698411743.6361809,10755.0
1698411743.656709,10755.0
1698411743.677237,10759.0
1698411743.6977654,10761.0
1698411743.7182937,10759.0
1698411743.7388217,10759.0
1698411743.75935,10756.0
1698411743.7798781,10756.0
1698411743.8004065,10758.0
1698411743.8209345,10749.0
1698411743.8414629,10757.0
1698411743.8619912,10758.0
1698411743.8825192,10755.0
1698411743.9030476,10760.0
1698411743.9235756,10760.0
1698411743.944104,10759.0
1698411743.964632,10760.0
1698411743.9851604,10761.0
1698411744.0056887,10756.0
1698411744.0262167,10759.0
1698411744.046745,10764.0
1698411744.0672731,10766.0
1698411744.0878015,10761.0
1698411744.1083298,10763.0
1698411744.1288579,10762.0
1698411744.1493862,10757.0
1698411744.1699142,10762.0
1698411744.1904426,10760.0
1698411744.2109709,10762.0
1698411744.231499,10763.0
1698411744.252027,10765.0
1698411744.2725554,10768.0
1698411744.2930834,10770.0
1698411744.3136117,10774.0
1698411744.3341398,10771.0
1698411744.3546684,10775.0
1698411744.3751962,10773.0
1698411744.3957248,10775.0
1698411744.4162529,10766.0
1698411744.4367812,10768.0
1698411744.4573095,10768.0
1698411744.4778376,10768.0
1698411744.4983659,10762.0
1698411744.518894,10758.0
1698411744.5394223,10756.0
1698411744.5599506,10750.0
1698411744.5804787,10746.0
1698411744.601007,10741.0
1698411744.621535,10739.0
1698411744.6420636,10740.0
1698411744.6625915,10734.0
1698411744.68312,10730.0
1698411744.703648,10728.0
1698411744.7241764,10731.0
1698411744.7447045,10737.0
1698411744.7652328,10741.0
1698411744.7857609,10747.0
1698411744.8062892,10753.0
1698411744.8268173,10758.0
1698411744.8473456,10763.0
1698411744.8678737,10756.0
1698411744.888402,10761.0
1698411744.9089303,10759.0
1698411744.9294584,10757.0
1698411744.949987,10753.0
1698411744.9705148,10750.0
1698411744.9910433,10754.0
1698411745.0115714,10757.0
1698411745.0320997,10764.0
1698411745.052628,10775.0
1698411745.073156,10774.0
1698411745.0936844,10783.0
1698411745.1142125,10790.0
1698411745.1347408,10792.0
1698411745.1552691,10796.0
1698411745.1757972,10796.0
1698411745.1963255,10793.0
1698411745.2168536,10788.0
1698411745.237382,10788.0
1698411745.2579103,10783.0
1698411745.2784383,10783.0
1698411745.2989666,10779.0
1698411745.3194947,10778.0
1698411745.340023,10776.0
1698411745.360551,10780.0
1698411745.3810792,10779.0
1698411745.4016078,10777.0
1698411745.4221356,10784.0
1698411745.4426641,10784.0
1698411745.463192,10786.0
1698411745.4837205,10777.0
1698411745.5042489,10781.0
1698411745.524777,10783.0
1698411745.5453053,10787.0
1698411745.5658333,10788.0
1698411745.5863616,10796.0
1698411745.60689,10795.0
1698411745.627418,10807.0
1698411745.6479464,10814.0
1698411745.6684744,10820.0
1698411745.6890028,10829.0
1698411745.7095308,10835.0
1698411745.7300591,10840.0
1698411745.7505875,10839.0
1698411745.7711155,10846.0
1698411745.7916439,10850.0
1698411745.8121722,10848.0
1698411745.8327003,10847.0
1698411745.8532286,10849.0
1698411745.8737566,10845.0
1698411745.894285,10843.0
1698411745.914813,10848.0
1698411745.9353414,10840.0
1698411745.9558697,10839.0
1698411745.9763978,10836.0
1698411745.996926,10839.0
1698411746.0174541,10839.0
1698411746.0379825,10841.0
1698411746.0585105,10838.0
1698411746.0790389,10835.0
1698411746.0995672,10839.0
1698411746.1200953,10838.0
1698411746.1406236,10841.0
1698411746.1611516,10840.0
1698411746.18168,10836.0
1698411746.2022085,10841.0
1698411746.2227364,10843.0
1698411746.2432647,10847.0
1698411746.2637928,10845.0
1698411746.284321,10841.0
1698411746.3048491,10842.0
1698411746.3253775,10846.0
1698411746.3459058,10846.0
1698411746.3664339,10849.0
1698411746.3869622,10850.0
1698411746.4074903,10851.0
1698411746.4280186,10848.0
1698411746.448547,10845.0
1698411746.469075,10850.0
1698411746.4896033,10847.0
1698411746.5101311,10847.0
1698411746.5306597,10847.0
1698411746.551188,10849.0
1698411746.571716,10849.0
1698411746.5922444,10848.0
1698411746.6127725,10844.0
1698411746.6333008,10848.0
1698411746.6538289,10848.0
1698411746.6743572,10842.0
1698411746.6948855,10845.0
1698411746.7154136,10841.0
1698411746.735942,10839.0
1698411746.75647,10840.0
1698411746.7769983,10833.0
1698411746.7975266,10834.0
1698411746.8180547,10829.0
1698411746.838583,10837.0
1698411746.859111,10838.0
1698411746.8796394,10834.0
1698411746.9001675,10828.0
1698411746.9206958,10832.0
1698411746.941224,10829.0
1698411746.9617522,10835.0
1698411746.9822805,10830.0
1698411747.0028086,10831.0
1698411747.023337,10831.0
1698411747.0438652,10832.0
1698411747.0643933,10834.0
1698411747.0849216,10826.0
1698411747.1054497,10825.0
1698411747.125978,10822.0
1698411747.1465063,10817.0
1698411747.1670344,10820.0
1698411747.1875627,10817.0
1698411747.2080908,10817.0
1698411747.228619,10816.0
1698411747.2491477,10814.0
1698411747.2696755,10812.0
1698411747.290204,10811.0
1698411747.310732,10806.0
1698411747.3312604,10809.0
1698411747.3517883,10808.0
1698411747.3723168,10809.0
1698411747.392845,10809.0
1698411747.413373,10813.0
1698411747.4339013,10818.0
1698411747.4544294,10821.0
1698411747.4749577,10827.0
1698411747.495486,10826.0
1698411747.516014,10840.0
1698411747.5365424,10836.0
1698411747.5570705,10835.0
1698411747.5775988,10833.0
1698411747.5981271,10834.0
1698411747.6186552,10832.0
1698411747.6391835,10837.0
1698411747.6597116,10841.0
1698411747.68024,10846.0
1698411747.700768,10846.0
1698411747.7212963,10849.0
1698411747.7418246,10847.0
1698411747.7623527,10848.0
1698411747.782881,10846.0
1698411747.803409,10843.0
1698411747.8239374,10839.0
1698411747.8444657,10843.0
1698411747.8649938,10840.0
1698411747.8855221,10837.0
1698411747.9060502,10836.0
1698411747.9265785,10834.0
1698411747.9471068,10833.0
1698411747.967635,10836.0
1698411747.988163,10841.0
1698411748.0086913,10839.0
1698411748.0292194,10838.0
1698411748.0497477,10838.0
1698411748.0702758,10837.0
1698411748.0908043,10841.0
1698411748.1113324,10842.0
1698411748.1318607,10844.0
1698411748.1523888,10843.0
1698411748.1729171,10839.0
1698411748.1934454,10840.0
1698411748.2139735,10836.0
1698411748.2345018,10831.0
1698411748.25503,10828.0
1698411748.2755582,10829.0
1698411748.296087,10824.0
1698411748.3166146,10830.0
1698411748.3371432,10836.0
1698411748.3576713,10840.0
1698411748.3781998,10849.0
1698411748.3987277,10860.0
1698411748.4192562,10869.0
1698411748.4397843,10879.0
1698411748.4603126,10891.0
1698411748.4808407,10904.0
1698411748.501369,10909.0
1698411748.521897,10918.0
1698411748.5424254,10918.0
1698411748.5629535,10921.0
1698411748.5834818,10925.0
1698411748.6040099,10931.0
1698411748.6245382,10931.0
1698411748.6450665,10929.0
1698411748.6655946,10933.0
1698411748.686123,10930.0
1698411748.706651,10929.0
1698411748.7271793,10931.0
1698411748.7477074,10928.0
1698411748.7682357,10928.0
1698411748.788764,10928.0
1698411748.809292,10924.0
1698411748.8298204,10924.0
1698411748.8503485,10921.0
1698411748.8708768,10919.0
1698411748.891405,10922.0
1698411748.9119332,10917.0
1698411748.9324615,10917.0
1698411748.9529896,10913.0
1698411748.973518,10913.0
1698411748.994046,10909.0
1698411749.0145743,10906.0
1698411749.0351024,10900.0
1698411749.0556307,10896.0
1698411749.076159,10892.0
1698411749.096687,10895.0
1698411749.1172152,10887.0
1698411749.1377437,10884.0
1698411749.1582716,10885.0
1698411749.1788,10879.0
1698411749.199328,10881.0
1698411749.2198565,10875.0
1698411749.2403848,10873.0
1698411749.260913,10864.0
1698411749.2814412,10860.0
1698411749.3019693,10858.0
1698411749.3224976,10854.0
1698411749.343026,10849.0
1698411749.363554,10844.0
1698411749.3840826,10843.0
1698411749.4046104,10841.0
1698411749.425139,10839.0
1698411749.4456668,10835.0
1698411749.466195,10836.0
1698411749.4867234,10834.0
1698411749.5072517,10834.0
1698411749.5277798,10837.0
1698411749.5483081,10840.0
1698411749.5688362,10850.0
1698411749.5893645,10861.0
1698411749.6098926,10878.0
1698411749.630421,10899.0
1698411749.650949,10923.0
1698411749.6714773,10944.0
1698411749.6920054,10976.0
1698411749.7125337,11002.0
1698411749.733062,11037.0
1698411749.75359,11062.0
1698411749.7741184,11086.0
1698411749.7946465,11115.0
1698411749.8151748,11136.0
1698411749.8357031,11162.0
1698411749.8562312,11176.0
1698411749.8767595,11193.0
1698411749.8972876,11201.0
1698411749.917816,11208.0
1698411749.9383442,11223.0
1698411749.9588723,11225.0
1698411749.9794006,11234.0
1698411749.9999287,11238.0
1698411750.020457,11238.0
1698411750.040985,11247.0
1698411750.0615134,11246.0
1698411750.0820415,11247.0
1698411750.1025698,11252.0
1698411750.123098,11256.0
1698411750.1436262,11263.0
1698411750.1641543,11277.0
1698411750.1846828,11277.0
1698411750.205211,11291.0
1698411750.2257392,11292.0
1698411750.246267,11291.0
1698411750.2667956,11299.0
1698411750.287324,11301.0
1698411750.307852,11306.0
1698411750.3283803,11314.0
1698411750.3489084,11331.0
1698411750.3694367,11346.0
1698411750.3899648,11362.0
1698411750.4104931,11386.0
1698411750.4310215,11407.0
1698411750.4515495,11424.0
1698411750.4720778,11445.0
1698411750.492606,11462.0
1698411750.5131345,11470.0
1698411750.5336626,11482.0
1698411750.5541909,11492.0
1698411750.574719,11505.0
1698411750.595247,11516.0
1698411750.6157753,11531.0
1698411750.6363037,11545.0
1698411750.6568317,11553.0
1698411750.67736,11561.0
1698411750.6978881,11576.0
1698411750.7184165,11589.0
1698411750.7389445,11598.0
1698411750.7594728,11609.0
1698411750.7800012,11620.0
1698411750.8005292,11631.0
1698411750.8210576,11644.0
1698411750.8415856,11652.0
1698411750.862114,11657.0
1698411750.8826423,11662.0
1698411750.9031703,11669.0
1698411750.9236987,11672.0
1698411750.9442267,11683.0
1698411750.964755,11683.0
1698411750.9852834,11688.0
1698411751.0058115,11686.0
1698411751.0263398,11691.0
1698411751.0468678,11692.0
1698411751.0673962,11698.0
1698411751.0879242,11695.0
1698411751.1084526,11698.0
1698411751.1289809,11696.0
1698411751.149509,11698.0
1698411751.1700373,11696.0
1698411751.1905653,11699.0
1698411751.2110937,11699.0
1698411751.231622,11698.0
1698411751.2521498,11698.0
1698411751.2726784,11702.0
1698411751.2932062,11707.0
1698411751.3137348,11710.0
1698411751.334263,11716.0
1698411751.3547912,11726.0
1698411751.3753195,11720.0
1698411751.3958476,11724.0
1698411751.4163759,11720.0
1698411751.436904,11716.0
1698411751.4574323,11716.0
1698411751.4779606,11709.0
1698411751.4984887,11712.0
1698411751.519017,11699.0
1698411751.539545,11695.0
1698411751.5600734,11690.0
1698411751.5806017,11689.0
1698411751.6011298,11683.0
1698411751.621658,11678.0
1698411751.6421862,11671.0
1698411751.6627145,11663.0
1698411751.683243,11660.0
1698411751.703771,11652.0
1698411751.7242994,11649.0
1698411751.7448275,11638.0
1698411751.7653558,11631.0
1698411751.785884,11630.0
1698411751.8064122,11626.0
1698411751.8269405,11616.0
1698411751.8474686,11611.0
1698411751.867997,11610.0
1698411751.888525,11603.0
1698411751.9090533,11599.0
1698411751.9295816,11591.0
1698411751.9501097,11581.0
1698411751.970638,11580.0
1698411751.991166,11579.0
1698411752.0116944,11572.0
1698411752.032223,11568.0
1698411752.0527508,11560.0
1698411752.0732791,11563.0
1698411752.0938072,11559.0
1698411752.1143355,11549.0
1698411752.1348636,11546.0
1698411752.155392,11537.0
1698411752.1759202,11536.0
1698411752.1964483,11528.0
1698411752.2169766,11519.0
1698411752.2375047,11520.0
1698411752.258033,11505.0
1698411752.2785614,11496.0
1698411752.2990894,11493.0
1698411752.3196177,11480.0
1698411752.3401458,11480.0
1698411752.3606741,11469.0
1698411752.3812025,11465.0
1698411752.4017305,11455.0
1698411752.4222589,11449.0
1698411752.442787,11447.0
1698411752.4633152,11437.0
1698411752.4838433,11437.0
1698411752.5043716,11427.0
1698411752.5249,11419.0
1698411752.545428,11418.0
1698411752.5659564,11414.0
1698411752.5864844,11412.0
1698411752.6070127,11404.0
1698411752.627541,11401.0
1698411752.6480691,11398.0
1698411752.6685975,11384.0
1698411752.6891255,11382.0
1698411752.7096539,11375.0
1698411752.730182,11376.0
1698411752.7507102,11370.0
1698411752.7712383,11367.0
1698411752.7917666,11365.0
1698411752.812295,11362.0
1698411752.832823,11363.0
1698411752.8533514,11361.0
1698411752.8738797,11358.0
1698411752.8944077,11357.0
1698411752.914936,11350.0
1698411752.9354641,11360.0
1698411752.9559925,11353.0
1698411752.9765208,11353.0
1698411752.9970489,11350.0
1698411753.0175772,11347.0
1698411753.0381052,11343.0
1698411753.0586336,11334.0
1698411753.0791616,11330.0
1698411753.09969,11333.0
1698411753.1202185,11322.0
1698411753.1407464,11317.0
1698411753.161275,11309.0
1698411753.1818027,11306.0
1698411753.202331,11298.0
1698411753.2228594,11295.0
1698411753.2433877,11291.0
1698411753.2639158,11286.0
1698411753.2844439,11282.0
1698411753.3049722,11276.0
1698411753.3255005,11272.0
1698411753.3460286,11266.0
1698411753.366557,11262.0
1698411753.387085,11254.0
1698411753.4076133,11255.0
1698411753.4281414,11253.0
1698411753.4486697,11245.0
1698411753.469198,11245.0
1698411753.489726,11236.0
1698411753.5102544,11235.0
1698411753.5307825,11233.0
1698411753.5513108,11230.0
1698411753.571839,11225.0
1698411753.5923672,11219.0
1698411753.6128955,11215.0
1698411753.6334236,11214.0
1698411753.653952,11209.0
1698411753.6744802,11205.0
1698411753.6950083,11198.0
1698411753.7155366,11193.0
1698411753.7360647,11189.0
1698411753.756593,11184.0
1698411753.777121,11168.0
1698411753.7976494,11166.0
1698411753.8181775,11156.0
1698411753.8387058,11151.0
1698411753.8592339,11138.0
1698411753.8797622,11132.0
1698411753.9002903,11124.0
1698411753.9208188,11114.0
1698411753.941347,11106.0
1698411753.9618752,11103.0
1698411753.9824033,11092.0
1698411754.0029316,11094.0
1698411754.02346,11093.0
1698411754.043988,11087.0
1698411754.0645163,11085.0
1698411754.0850444,11082.0
1698411754.1055727,11071.0
1698411754.1261008,11072.0
1698411754.146629,11066.0
1698411754.1671576,11061.0
1698411754.1876855,11060.0
1698411754.208214,11057.0
1698411754.228742,11050.0
1698411754.2492704,11049.0
1698411754.2697985,11048.0
1698411754.2903268,11042.0
1698411754.310855,11038.0
1698411754.331383,11034.0
1698411754.3519113,11034.0
1698411754.3724396,11030.0
1698411754.3929677,11019.0
1698411754.413496,11019.0
1698411754.434024,11004.0
1698411754.4545524,11001.0
1698411754.4750805,10993.0
1698411754.4956088,10989.0
1698411754.5161371,10984.0
1698411754.5366652,10979.0
1698411754.5571935,10976.0
1698411754.5777216,10967.0
1698411754.59825,10961.0
1698411754.6187782,10956.0
1698411754.6393063,10948.0
1698411754.6598346,10946.0
1698411754.6803627,10941.0
1698411754.700891,10938.0
1698411754.7214193,10934.0
1698411754.7419474,10930.0
1698411754.7624757,10925.0
1698411754.7830038,10920.0
1698411754.8035321,10924.0
1698411754.8240602,10916.0
1698411754.8445885,10915.0
1698411754.8651168,10910.0
1698411754.885645,10906.0
1698411754.906173,10899.0
1698411754.9267013,10898.0
1698411754.9472294,10897.0
1698411754.967758,10893.0
1698411754.9882858,10889.0
1698411755.0088143,10890.0
1698411755.0293422,10884.0
1698411755.049871,10883.0
1698411755.0703993,10879.0
1698411755.0909274,10877.0
1698411755.1114557,10871.0
1698411755.1319838,10865.0
1698411755.152512,10860.0
1698411755.1730402,10858.0
1698411755.1935685,10847.0
1698411755.2140968,10840.0
1698411755.2346249,10834.0
1698411755.2551532,10827.0
1698411755.2756813,10819.0
1698411755.2962098,10816.0
1698411755.316738,10816.0
1698411755.3372662,10806.0
1698411755.3577943,10804.0
1698411755.3783226,10799.0
1698411755.3988507,10800.0
1698411755.419379,10789.0
1698411755.439907,10790.0
1698411755.4604354,10790.0
1698411755.4809635,10784.0
1698411755.5014918,10784.0
1698411755.5220199,10779.0
1698411755.5425482,10774.0
1698411755.5630765,10775.0
1698411755.5836046,10774.0
1698411755.604133,10771.0
1698411755.624661,10768.0
1698411755.6451893,10766.0
1698411755.6657176,10763.0
1698411755.6862457,10767.0
1698411755.706774,10768.0
1698411755.727302,10760.0
1698411755.7478304,10765.0
1698411755.7683587,10764.0
1698411755.7888868,10761.0
1698411755.809415,10760.0
1698411755.8299432,10762.0
1698411755.8504715,10762.0
1698411755.8709996,10758.0
1698411755.891528,10749.0
1698411755.9120562,10748.0
1698411755.9325843,10744.0
1698411755.9531124,10744.0
1698411755.9736407,10741.0
1698411755.994169,10737.0
