ts(msec),PPG
1698675165020.0083,12924.0
1698675165040.502,12941.0
1698675165060.9954,12960.0
1698675165081.4883,12974.0
1698675165101.982,13007.0
1698675165122.475,13041.0
1698675165142.9688,13080.0
1698675165163.4622,13131.0
1698675165183.9556,13191.0
1698675165204.449,13249.0
1698675165224.942,13319.0
1698675165245.4355,13385.0
1698675165265.929,13445.0
1698675165286.4224,13509.0
1698675165306.9158,13569.0
1698675165327.4092,13623.0
1698675165347.9023,13677.0
1698675165368.3958,13733.0
1698675165388.8892,13790.0
1698675165409.3826,13843.0
1698675165429.876,13854.0
1698675165450.3694,13948.0
1698675165470.8628,13985.0
1698675165491.356,14034.0
1698675165511.8494,14084.0
1698675165532.3428,14120.0
1698675165552.8362,14119.0
1698675165573.3296,14195.0
1698675165593.823,14235.0
1698675165614.3164,14268.0
1698675165634.8096,14301.0
1698675165655.303,14332.0
1698675165675.7964,14359.0
1698675165696.2898,14377.0
1698675165716.7832,14392.0
1698675165737.2766,14391.0
1698675165757.7698,14382.0
1698675165778.2632,14376.0
1698675165798.7566,14376.0
1698675165819.25,14361.0
1698675165839.7434,14343.0
1698675165860.2368,14330.0
1698675165880.7302,14314.0
1698675165901.2234,14300.0
1698675165921.7168,14286.0
1698675165942.2102,14272.0
1698675165962.7036,14263.0
1698675165983.197,14258.0
1698675166003.6904,14261.0
1698675166024.1836,14261.0
1698675166044.677,14264.0
1698675166065.1704,14265.0
1698675166085.6638,14266.0
1698675166106.1572,14264.0
1698675166126.6506,14264.0
1698675166147.144,14268.0
1698675166167.6372,14264.0
1698675166188.1306,14263.0
1698675166208.624,14267.0
1698675166229.1174,14269.0
1698675166249.6108,14260.0
1698675166270.1042,14263.0
1698675166290.5977,14224.0
1698675166311.0908,14264.0
1698675166331.5842,14265.0
1698675166352.0776,14258.0
1698675166372.571,14260.0
1698675166393.0645,14260.0
1698675166413.558,14262.0
1698675166434.051,14258.0
1698675166454.5444,14260.0
1698675166475.0378,14215.0
1698675166495.5312,14259.0
1698675166516.025,14255.0
1698675166536.518,14258.0
1698675166557.0117,14257.0
1698675166577.5046,14257.0
1698675166597.998,14258.0
1698675166618.4917,14250.0
1698675166638.9849,14255.0
1698675166659.4785,14257.0
1698675166679.9717,14254.0
1698675166700.4648,14254.0
1698675166720.9585,14262.0
1698675166741.4517,14263.0
1698675166761.945,14268.0
1698675166782.4385,14231.0
1698675166802.932,14269.0
1698675166823.4253,14272.0
1698675166843.9185,14270.0
1698675166864.412,14271.0
1698675166884.9053,14275.0
1698675166905.3987,14276.0
1698675166925.892,14281.0
1698675166946.3855,14276.0
1698675166966.879,14291.0
1698675166987.372,14299.0
1698675167007.8655,14302.0
1698675167028.359,14309.0
1698675167048.8523,14315.0
1698675167069.3457,14329.0
1698675167089.839,14344.0
1698675167110.3325,14371.0
1698675167130.8257,14408.0
1698675167151.319,14465.0
1698675167171.8125,14525.0
1698675167192.306,14566.0
1698675167212.7993,14599.0
1698675167233.2927,14641.0
1698675167253.786,14677.0
1698675167274.2793,14697.0
1698675167294.7727,14725.0
1698675167315.266,14750.0
1698675167335.7595,14779.0
1698675167356.253,14804.0
1698675167376.746,14830.0
1698675167397.2395,14854.0
1698675167417.733,14878.0
1698675167438.2263,14896.0
1698675167458.7195,14922.0
1698675167479.2131,14940.0
1698675167499.7063,14954.0
1698675167520.1997,14973.0
1698675167540.693,14989.0
1698675167561.1863,15010.0
1698675167581.68,15024.0
1698675167602.173,15037.0
1698675167622.6667,15044.0
1698675167643.1602,15062.0
1698675167663.6533,15074.0
1698675167684.1467,15085.0
1698675167704.64,15087.0
1698675167725.1335,15058.0
1698675167745.627,15112.0
1698675167766.1204,15119.0
1698675167786.6135,15131.0
1698675167807.107,15142.0
1698675167827.6003,15149.0
1698675167848.0938,15113.0
1698675167868.5872,15169.0
1698675167889.0806,15180.0
1698675167909.574,15176.0
1698675167930.0671,15185.0
1698675167950.5603,15190.0
1698675167971.054,15198.0
1698675167991.5474,15201.0
1698675168012.0408,15209.0
1698675168032.5342,15216.0
1698675168053.027,15180.0
1698675168073.5208,15226.0
1698675168094.0142,15231.0
1698675168114.5076,15241.0
1698675168135.001,15244.0
1698675168155.4944,15250.0
1698675168175.9878,15259.0
1698675168196.481,15263.0
1698675168216.9744,15261.0
1698675168237.4678,15270.0
1698675168257.9612,15275.0
1698675168278.4546,15282.0
1698675168298.948,15293.0
1698675168319.4414,15291.0
1698675168339.9346,15296.0
1698675168360.428,15303.0
1698675168380.9214,15306.0
1698675168401.4148,15313.0
1698675168421.9082,15317.0
1698675168442.4016,15321.0
1698675168462.8948,15278.0
1698675168483.3882,15330.0
1698675168503.8816,15335.0
1698675168524.375,15333.0
1698675168544.8684,15340.0
1698675168565.3618,15343.0
1698675168585.8552,15347.0
1698675168606.3484,15351.0
1698675168626.8418,15356.0
1698675168647.3352,15363.0
1698675168667.8286,15366.0
1698675168688.322,15376.0
1698675168708.8154,15381.0
1698675168729.3086,15381.0
1698675168749.802,15380.0
1698675168770.2954,15387.0
1698675168790.7888,15391.0
1698675168811.2822,15395.0
1698675168831.7756,15391.0
1698675168852.269,15401.0
1698675168872.7622,15405.0
1698675168893.2556,15414.0
1698675168913.749,15414.0
1698675168934.2424,15419.0
1698675168954.7358,15374.0
1698675168975.2292,15428.0
1698675168995.723,15430.0
1698675169016.2158,15435.0
1698675169036.7092,15439.0
1698675169057.2026,15447.0
1698675169077.696,15454.0
1698675169098.1897,15452.0
1698675169118.6829,15453.0
1698675169139.176,15459.0
1698675169159.6694,15460.0
1698675169180.1628,15460.0
1698675169200.6562,15469.0
1698675169221.1497,15468.0
1698675169241.643,15473.0
1698675169262.1365,15479.0
1698675169282.6296,15483.0
1698675169303.123,15490.0
1698675169323.6165,15491.0
1698675169344.11,15493.0
1698675169364.6033,15500.0
1698675169385.0967,15502.0
1698675169405.5898,15514.0
1698675169426.0833,15516.0
1698675169446.577,15519.0
1698675169467.07,15522.0
1698675169487.5637,15531.0
1698675169508.057,15535.0
1698675169528.5503,15526.0
1698675169549.0437,15532.0
1698675169569.5369,15535.0
1698675169590.0305,15542.0
1698675169610.5237,15540.0
1698675169631.017,15541.0
1698675169651.5105,15546.0
1698675169672.004,15547.0
1698675169692.497,15549.0
1698675169712.9905,15550.0
1698675169733.484,15551.0
1698675169753.9773,15550.0
1698675169774.4707,15552.0
1698675169794.964,15515.0
1698675169815.4573,15557.0
1698675169835.9507,15564.0
1698675169856.444,15563.0
1698675169876.9375,15562.0
1698675169897.431,15564.0
1698675169917.9243,15565.0
1698675169938.4175,15525.0
1698675169958.911,15573.0
1698675169979.4043,15577.0
1698675169999.8977,15577.0
1698675170020.391,15539.0
1698675170040.8845,15586.0
1698675170061.378,15590.0
1698675170081.871,15593.0
1698675170102.3645,15592.0
1698675170122.858,15599.0
1698675170143.3513,15599.0
1698675170163.8447,15601.0
1698675170184.338,15599.0
1698675170204.8315,15605.0
1698675170225.3247,15608.0
1698675170245.818,15614.0
1698675170266.3115,15614.0
1698675170286.805,15616.0
1698675170307.2983,15619.0
1698675170327.7915,15619.0
1698675170348.2852,15617.0
1698675170368.7783,15621.0
1698675170389.2715,15624.0
1698675170409.7651,15628.0
1698675170430.2583,15633.0
1698675170450.752,15632.0
1698675170471.2454,15640.0
1698675170491.7383,15638.0
1698675170512.232,15644.0
1698675170532.725,15650.0
1698675170553.2188,15643.0
1698675170573.7122,15649.0
1698675170594.2056,15650.0
1698675170614.699,15649.0
1698675170635.192,15644.0
1698675170655.6855,15641.0
1698675170676.179,15636.0
1698675170696.6724,15636.0
1698675170717.1658,15636.0
1698675170737.6592,15630.0
1698675170758.1523,15629.0
1698675170778.6458,15626.0
1698675170799.1392,15622.0
1698675170819.6326,15580.0
1698675170840.126,15616.0
1698675170860.6194,15607.0
1698675170881.1128,15596.0
1698675170901.606,15590.0
1698675170922.0994,15578.0
1698675170942.5928,15574.0
1698675170963.0862,15572.0
1698675170983.5796,15563.0
1698675171004.073,15566.0
1698675171024.5664,15559.0
1698675171045.0596,15565.0
1698675171065.553,15562.0
1698675171086.0464,15552.0
1698675171106.5398,15549.0
1698675171127.0332,15538.0
1698675171147.5266,15520.0
1698675171168.0198,15502.0
1698675171188.5132,15493.0
1698675171209.0066,15491.0
1698675171229.5,15479.0
1698675171249.9934,15477.0
1698675171270.4868,15476.0
1698675171290.9802,15471.0
1698675171311.4734,15468.0
1698675171331.9668,15462.0
1698675171352.4602,15458.0
1698675171372.9536,15449.0
1698675171393.447,15439.0
1698675171413.9404,15432.0
1698675171434.4336,15428.0
1698675171454.927,15422.0
1698675171475.4204,15407.0
1698675171495.9138,15401.0
1698675171516.4072,15388.0
1698675171536.9006,15379.0
1698675171557.394,15366.0
1698675171577.8872,15363.0
1698675171598.3806,15360.0
1698675171618.874,15353.0
1698675171639.3674,15347.0
1698675171659.8608,15335.0
1698675171680.3542,15334.0
1698675171700.8477,15321.0
1698675171721.3408,15318.0
1698675171741.8342,15310.0
1698675171762.3276,15308.0
1698675171782.821,15300.0
1698675171803.3145,15295.0
1698675171823.808,15283.0
1698675171844.301,15277.0
1698675171864.7944,15266.0
1698675171885.2878,15261.0
1698675171905.7812,15251.0
1698675171926.275,15244.0
1698675171946.768,15227.0
1698675171967.2617,15211.0
1698675171987.7546,15189.0
1698675172008.248,15175.0
1698675172028.7417,15172.0
1698675172049.2349,15159.0
1698675172069.7285,15146.0
1698675172090.2217,15138.0
1698675172110.7148,15129.0
1698675172131.2085,15119.0
1698675172151.7017,15100.0
1698675172172.195,15095.0
1698675172192.6885,15095.0
1698675172213.182,15095.0
1698675172233.6753,15084.0
1698675172254.1685,15084.0
1698675172274.662,15076.0
1698675172295.1553,15071.0
1698675172315.6487,15061.0
1698675172336.142,15064.0
1698675172356.6355,15056.0
1698675172377.129,15045.0
1698675172397.622,15036.0
1698675172418.1155,15024.0
1698675172438.609,15020.0
1698675172459.1023,15008.0
1698675172479.5957,15007.0
1698675172500.089,15001.0
1698675172520.5825,14984.0
1698675172541.0757,14974.0
1698675172561.569,14964.0
1698675172582.0625,14954.0
1698675172602.556,14940.0
1698675172623.0493,14935.0
1698675172643.5427,14920.0
1698675172664.036,14912.0
1698675172684.5293,14901.0
1698675172705.0227,14894.0
1698675172725.516,14882.0
1698675172746.0095,14880.0
1698675172766.503,14873.0
1698675172786.996,14874.0
1698675172807.4895,14870.0
1698675172827.983,14869.0
1698675172848.4763,14864.0
1698675172868.9695,14852.0
1698675172889.4631,14838.0
1698675172909.9563,14828.0
1698675172930.4497,14819.0
1698675172950.943,14805.0
1698675172971.4363,14794.0
1698675172991.93,14789.0
1698675173012.423,14782.0
1698675173032.9167,14766.0
1698675173053.4102,14717.0
1698675173073.9033,14746.0
1698675173094.3967,14732.0
1698675173114.89,14717.0
1698675173135.3835,14711.0
1698675173155.877,14709.0
1698675173176.3704,14705.0
1698675173196.8635,14704.0
1698675173217.357,14691.0
1698675173237.8503,14683.0
1698675173258.3438,14677.0
1698675173278.8372,14665.0
1698675173299.3306,14653.0
1698675173319.824,14640.0
1698675173340.3171,14633.0
1698675173360.8103,14624.0
1698675173381.304,14611.0
1698675173401.7974,14603.0
1698675173422.2908,14592.0
1698675173442.7842,14569.0
1698675173463.277,14560.0
1698675173483.7708,14550.0
1698675173504.2642,14558.0
1698675173524.7576,14573.0
1698675173545.251,14582.0
1698675173565.7444,14583.0
1698675173586.2378,14587.0
1698675173606.731,14579.0
1698675173627.2244,14580.0
1698675173647.7178,14572.0
1698675173668.2112,14569.0
1698675173688.7046,14570.0
1698675173709.198,14561.0
1698675173729.6914,14555.0
1698675173750.1846,14554.0
1698675173770.678,14552.0
1698675173791.1714,14548.0
1698675173811.6648,14531.0
1698675173832.1582,14518.0
1698675173852.6516,14510.0
1698675173873.1448,14500.0
1698675173893.6382,14481.0
1698675173914.1316,14475.0
1698675173934.625,14456.0
1698675173955.1184,14445.0
1698675173975.6118,14390.0
1698675173996.1052,14421.0
1698675174016.5984,14417.0
1698675174037.0918,14397.0
1698675174057.5852,14352.0
1698675174078.0786,14386.0
1698675174098.572,14376.0
1698675174119.0654,14375.0
1698675174139.5586,14375.0
1698675174160.052,14373.0
1698675174180.5454,14372.0
1698675174201.0388,14373.0
1698675174221.5322,14377.0
1698675174242.0256,14378.0
1698675174262.519,14381.0
1698675174283.0122,14383.0
1698675174303.5056,14385.0
1698675174323.999,14382.0
1698675174344.4924,14377.0
1698675174364.9858,14370.0
1698675174385.4792,14371.0
1698675174405.973,14367.0
1698675174426.4658,14363.0
1698675174446.9592,14352.0
1698675174467.4526,14344.0
1698675174487.946,14328.0
1698675174508.4397,14307.0
1698675174528.9329,14282.0
1698675174549.426,14259.0
1698675174569.9194,14246.0
1698675174590.4128,14238.0
1698675174610.9062,14241.0
1698675174631.3997,14236.0
1698675174651.893,14242.0
1698675174672.3865,14254.0
1698675174692.8796,14254.0
1698675174713.373,14255.0
1698675174733.8665,14254.0
1698675174754.36,14257.0
1698675174774.8533,14257.0
1698675174795.3467,14251.0
1698675174815.8398,14246.0
1698675174836.3333,14229.0
1698675174856.827,14222.0
1698675174877.32,14210.0
1698675174897.8137,14204.0
1698675174918.307,14200.0
1698675174938.8003,14180.0
1698675174959.2937,14174.0
1698675174979.7869,14162.0
1698675175000.2805,14108.0
1698675175020.7737,14144.0
1698675175041.267,14138.0
1698675175061.7605,14141.0
1698675175082.254,14137.0
1698675175102.747,14137.0
1698675175123.2405,14137.0
1698675175143.734,14135.0
1698675175164.2273,14138.0
1698675175184.7207,14142.0
1698675175205.214,14144.0
1698675175225.7073,14147.0
1698675175246.2007,14144.0
1698675175266.694,14144.0
1698675175287.1875,14139.0
1698675175307.681,14139.0
1698675175328.1743,14137.0
1698675175348.6675,14133.0
1698675175369.161,14131.0
1698675175389.6543,14123.0
1698675175410.1477,14122.0
1698675175430.641,14108.0
1698675175451.1345,14091.0
1698675175471.628,14075.0
1698675175492.121,14062.0
1698675175512.6145,14064.0
1698675175533.108,14033.0
1698675175553.6013,14086.0
1698675175574.0947,14099.0
1698675175594.588,14109.0
1698675175615.0815,14116.0
1698675175635.5747,14123.0
1698675175656.068,14119.0
1698675175676.5615,14120.0
1698675175697.055,14124.0
1698675175717.5483,14117.0
1698675175738.0415,14109.0
1698675175758.5352,14087.0
1698675175779.0283,14065.0
1698675175799.5215,14048.0
1698675175820.0151,13996.0
1698675175840.5083,14022.0
1698675175861.002,14013.0
1698675175881.4954,14005.0
1698675175901.9883,13991.0
1698675175922.482,13974.0
1698675175942.975,13963.0
1698675175963.4688,13913.0
1698675175983.9622,13952.0
1698675176004.4556,13956.0
1698675176024.949,13963.0
1698675176045.442,13967.0
1698675176065.9355,13971.0
1698675176086.429,13971.0
1698675176106.9224,13975.0
1698675176127.4158,13987.0
1698675176147.9092,13994.0
1698675176168.4023,13998.0
1698675176188.8958,14001.0
1698675176209.3892,14006.0
1698675176229.8826,14003.0
1698675176250.376,14010.0
1698675176270.8694,14008.0
1698675176291.3628,14005.0
1698675176311.856,14002.0
1698675176332.3494,13995.0
1698675176352.8428,13994.0
1698675176373.3362,13985.0
1698675176393.8296,13975.0
1698675176414.323,13965.0
1698675176434.8164,13949.0
1698675176455.3096,13947.0
1698675176475.803,13947.0
1698675176496.2964,13947.0
1698675176516.7898,13957.0
1698675176537.2832,13961.0
1698675176557.7766,13965.0
1698675176578.2698,13971.0
1698675176598.7632,13967.0
1698675176619.2566,13967.0
1698675176639.75,13965.0
1698675176660.2434,13960.0
1698675176680.7368,13952.0
1698675176701.2302,13942.0
1698675176721.7234,13937.0
1698675176742.2168,13930.0
1698675176762.7102,13926.0
1698675176783.2036,13916.0
1698675176803.697,13911.0
1698675176824.1904,13902.0
1698675176844.6836,13858.0
1698675176865.177,13891.0
1698675176885.6704,13884.0
1698675176906.1638,13874.0
1698675176926.6572,13872.0
1698675176947.1506,13871.0
1698675176967.644,13881.0
1698675176988.1372,13888.0
1698675177008.6306,13902.0
1698675177029.124,13911.0
1698675177049.6174,13911.0
1698675177070.1108,13914.0
1698675177090.6042,13922.0
1698675177111.0977,13926.0
1698675177131.5908,13927.0
1698675177152.0842,13926.0
1698675177172.5776,13927.0
1698675177193.071,13923.0
1698675177213.5645,13923.0
1698675177234.058,13923.0
1698675177254.551,13925.0
1698675177275.0444,13924.0
1698675177295.5378,13913.0
1698675177316.0312,13908.0
1698675177336.525,13905.0
1698675177357.018,13889.0
1698675177377.5117,13881.0
1698675177398.0046,13878.0
1698675177418.498,13875.0
1698675177438.9917,13878.0
1698675177459.4849,13886.0
1698675177479.9785,13898.0
1698675177500.4717,13906.0
1698675177520.9648,13911.0
1698675177541.4585,13912.0
1698675177561.9517,13915.0
1698675177582.445,13917.0
1698675177602.9385,13912.0
1698675177623.432,13911.0
1698675177643.9253,13900.0
1698675177664.4185,13898.0
1698675177684.912,13896.0
1698675177705.4053,13877.0
1698675177725.8987,13868.0
1698675177746.392,13861.0
1698675177766.8855,13851.0
1698675177787.379,13841.0
1698675177807.872,13830.0
1698675177828.3655,13814.0
1698675177848.859,13800.0
1698675177869.3523,13792.0
1698675177889.8457,13784.0
1698675177910.339,13786.0
1698675177930.8325,13803.0
1698675177951.3257,13801.0
1698675177971.819,13772.0
1698675177992.3125,13821.0
1698675178012.806,13831.0
1698675178033.2993,13837.0
1698675178053.7927,13843.0
1698675178074.286,13847.0
1698675178094.7793,13848.0
1698675178115.2727,13851.0
1698675178135.766,13852.0
1698675178156.2595,13845.0
1698675178176.753,13841.0
1698675178197.246,13842.0
1698675178217.7395,13837.0
1698675178238.233,13830.0
1698675178258.7263,13830.0
1698675178279.2195,13834.0
1698675178299.7131,13828.0
1698675178320.2063,13821.0
1698675178340.6997,13815.0
1698675178361.193,13819.0
1698675178381.6863,13831.0
1698675178402.18,13835.0
1698675178422.673,13847.0
1698675178443.1667,13844.0
1698675178463.6602,13847.0
1698675178484.1533,13798.0
1698675178504.6467,13838.0
1698675178525.14,13829.0
1698675178545.6335,13824.0
1698675178566.127,13822.0
1698675178586.6204,13809.0
1698675178607.1135,13806.0
1698675178627.607,13801.0
1698675178648.1003,13791.0
1698675178668.5938,13782.0
1698675178689.0872,13786.0
1698675178709.5806,13777.0
1698675178730.074,13764.0
1698675178750.5671,13760.0
1698675178771.0603,13757.0
1698675178791.554,13744.0
1698675178812.0474,13734.0
1698675178832.5408,13721.0
1698675178853.0342,13681.0
1698675178873.527,13732.0
1698675178894.0208,13740.0
1698675178914.5142,13759.0
1698675178935.0076,13775.0
1698675178955.501,13779.0
1698675178975.9944,13790.0
1698675178996.4878,13804.0
1698675179016.981,13806.0
1698675179037.4744,13819.0
1698675179057.9678,13820.0
1698675179078.4612,13821.0
1698675179098.9546,13823.0
1698675179119.448,13824.0
1698675179139.9414,13822.0
1698675179160.4346,13825.0
1698675179180.928,13817.0
1698675179201.4214,13806.0
1698675179221.9148,13793.0
1698675179242.4082,13786.0
1698675179262.9016,13764.0
1698675179283.3948,13756.0
1698675179303.8882,13745.0
1698675179324.3816,13751.0
1698675179344.875,13764.0
1698675179365.3684,13772.0
1698675179385.8618,13740.0
1698675179406.3552,13782.0
1698675179426.8484,13774.0
1698675179447.3418,13767.0
1698675179467.8352,13763.0
1698675179488.3286,13764.0
1698675179508.822,13751.0
1698675179529.3154,13751.0
1698675179549.8086,13737.0
1698675179570.302,13728.0
1698675179590.7954,13725.0
1698675179611.2888,13720.0
1698675179631.7822,13720.0
1698675179652.2756,13717.0
1698675179672.769,13711.0
1698675179693.2622,13704.0
1698675179713.7556,13690.0
1698675179734.249,13687.0
1698675179754.7424,13676.0
1698675179775.2358,13673.0
1698675179795.7292,13675.0
1698675179816.223,13693.0
1698675179836.7158,13703.0
1698675179857.2092,13718.0
1698675179877.7026,13724.0
1698675179898.196,13733.0
1698675179918.6897,13740.0
1698675179939.1829,13740.0
1698675179959.676,13748.0
1698675179980.1694,13706.0
1698675180000.6628,13746.0
1698675180021.1562,13708.0
1698675180041.6497,13742.0
1698675180062.143,13736.0
1698675180082.6365,13741.0
1698675180103.1296,13743.0
1698675180123.623,13738.0
1698675180144.1165,13729.0
1698675180164.61,13713.0
1698675180185.1033,13701.0
1698675180205.5967,13689.0
1698675180226.0898,13679.0
1698675180246.5833,13675.0
1698675180267.077,13685.0
1698675180287.57,13701.0
1698675180308.0637,13711.0
1698675180328.557,13720.0
1698675180349.0503,13719.0
1698675180369.5437,13716.0
1698675180390.0369,13711.0
1698675180410.5305,13715.0
1698675180431.0237,13704.0
1698675180451.517,13693.0
1698675180472.0105,13694.0
1698675180492.504,13680.0
1698675180512.997,13677.0
1698675180533.4905,13665.0
1698675180553.984,13656.0
1698675180574.4773,13651.0
1698675180594.9707,13639.0
1698675180615.464,13638.0
1698675180635.9573,13624.0
1698675180656.4507,13615.0
1698675180676.944,13612.0
1698675180697.4375,13599.0
1698675180717.931,13598.0
1698675180738.4243,13606.0
1698675180758.9175,13622.0
1698675180779.411,13634.0
1698675180799.9043,13650.0
1698675180820.3977,13654.0
1698675180840.891,13658.0
1698675180861.3845,13664.0
1698675180881.878,13674.0
1698675180902.371,13675.0
1698675180922.8645,13675.0
1698675180943.358,13684.0
1698675180963.8513,13677.0
1698675180984.3447,13676.0
1698675181004.838,13675.0
1698675181025.3315,13671.0
1698675181045.8247,13667.0
1698675181066.318,13659.0
1698675181086.8115,13650.0
1698675181107.305,13647.0
1698675181127.7983,13630.0
1698675181148.2915,13615.0
1698675181168.7852,13604.0
1698675181189.2783,13599.0
1698675181209.7715,13565.0
1698675181230.2651,13625.0
1698675181250.7583,13627.0
1698675181271.252,13637.0
1698675181291.7454,13602.0
1698675181312.2383,13640.0
1698675181332.732,13637.0
1698675181353.225,13641.0
1698675181373.7188,13642.0
1698675181394.2122,13630.0
1698675181414.7056,13627.0
1698675181435.199,13617.0
1698675181455.692,13613.0
1698675181476.1855,13604.0
1698675181496.679,13601.0
1698675181517.1724,13595.0
1698675181537.6658,13548.0
1698675181558.1592,13577.0
1698675181578.6523,13565.0
1698675181599.1458,13553.0
1698675181619.6392,13546.0
1698675181640.1326,13532.0
1698675181660.626,13523.0
1698675181681.1194,13525.0
1698675181701.6128,13521.0
1698675181722.106,13525.0
1698675181742.5994,13535.0
1698675181763.0928,13539.0
1698675181783.5862,13550.0
1698675181804.0796,13553.0
1698675181824.573,13570.0
1698675181845.0664,13576.0
1698675181865.5596,13583.0
1698675181886.053,13593.0
1698675181906.5464,13589.0
1698675181927.0398,13552.0
1698675181947.5332,13591.0
1698675181968.0266,13590.0
1698675181988.5198,13585.0
1698675182009.0132,13582.0
1698675182029.5066,13570.0
1698675182070.4934,13552.0
1698675182090.9868,13502.0
1698675182111.4802,13530.0
1698675182131.9734,13523.0
1698675182152.4668,13508.0
1698675182172.9602,13501.0
1698675182193.4536,13495.0
1698675182213.947,13462.0
1698675182234.4404,13528.0
1698675182254.9336,13542.0
1698675182275.427,13552.0
1698675182295.9204,13562.0
1698675182316.4138,13568.0
1698675182336.9072,13568.0
1698675182357.4006,13559.0
1698675182377.894,13546.0
1698675182398.3872,13547.0
1698675182418.8806,13533.0
1698675182439.374,13526.0
1698675182459.8674,13514.0
1698675182480.3608,13506.0
1698675182500.8542,13464.0
1698675182521.3477,13506.0
1698675182541.8408,13499.0
1698675182562.3342,13491.0
1698675182582.8276,13484.0
1698675182603.321,13476.0
1698675182623.8145,13474.0
1698675182644.308,13472.0
1698675182664.801,13469.0
1698675182685.2944,13470.0
1698675182705.7878,13479.0
1698675182726.2812,13485.0
1698675182746.775,13485.0
1698675182767.268,13489.0
1698675182787.7617,13495.0
1698675182808.2546,13500.0
1698675182828.748,13497.0
1698675182849.2417,13499.0
1698675182869.7349,13506.0
1698675182890.2285,13502.0
1698675182910.7217,13499.0
1698675182931.2148,13495.0
1698675182951.7085,13489.0
1698675182972.2017,13477.0
1698675182992.695,13438.0
1698675183013.1885,13473.0
1698675183033.682,13463.0
1698675183054.1753,13446.0
1698675183074.6685,13436.0
1698675183095.162,13426.0
1698675183115.6553,13420.0
1698675183136.1487,13420.0
1698675183156.642,13423.0
1698675183177.1355,13423.0
1698675183197.629,13435.0
1698675183218.122,13453.0
1698675183238.6155,13468.0
1698675183259.109,13478.0
1698675183279.6023,13483.0
1698675183300.0957,13485.0
1698675183320.589,13491.0
1698675183341.0825,13490.0
1698675183361.5757,13483.0
1698675183382.069,13476.0
1698675183402.5625,13472.0
1698675183423.056,13454.0
1698675183443.5493,13445.0
1698675183464.0427,13435.0
1698675183484.536,13424.0
1698675183505.0293,13417.0
1698675183525.5227,13420.0
1698675183546.016,13426.0
1698675183566.5095,13419.0
1698675183587.003,13412.0
1698675183607.496,13412.0
1698675183627.9895,13362.0
1698675183648.483,13403.0
1698675183668.9763,13397.0
1698675183689.4695,13395.0
1698675183709.9631,13354.0
1698675183730.4563,13391.0
1698675183750.9497,13391.0
1698675183771.443,13391.0
1698675183791.9363,13388.0
1698675183812.43,13385.0
1698675183832.923,13384.0
1698675183853.4167,13384.0
1698675183873.9102,13376.0
1698675183894.4033,13373.0
1698675183914.8967,13367.0
1698675183935.39,13365.0
1698675183955.8835,13364.0
1698675183976.377,13355.0
1698675183996.8704,13312.0
1698675184017.3635,13347.0
1698675184037.857,13349.0
1698675184058.3503,13338.0
1698675184078.8438,13334.0
1698675184099.3372,13334.0
1698675184119.8306,13343.0
1698675184140.324,13349.0
1698675184160.8171,13352.0
1698675184181.3103,13341.0
1698675184201.804,13323.0
1698675184222.2974,13320.0
1698675184242.7908,13303.0
1698675184263.2842,13293.0
1698675184283.777,13287.0
1698675184304.2708,13276.0
1698675184324.7642,13267.0
1698675184345.2576,13257.0
1698675184365.751,13247.0
1698675184386.2444,13242.0
1698675184406.7378,13241.0
1698675184427.231,13232.0
1698675184447.7244,13227.0
1698675184468.2178,13232.0
1698675184488.7112,13226.0
1698675184509.2046,13228.0
1698675184529.698,13227.0
1698675184550.1914,13218.0
1698675184570.6846,13215.0
1698675184591.178,13211.0
1698675184611.6714,13208.0
1698675184632.1648,13210.0
1698675184652.6582,13212.0
1698675184673.1516,13219.0
1698675184693.6448,13226.0
1698675184714.1382,13234.0
1698675184734.6316,13238.0
1698675184755.125,13247.0
1698675184775.6184,13246.0
1698675184796.1118,13203.0
1698675184816.6052,13243.0
1698675184837.0984,13201.0
1698675184857.5918,13204.0
1698675184878.0852,13240.0
1698675184898.5786,13242.0
1698675184919.072,13242.0
1698675184939.5654,13243.0
1698675184960.0586,13238.0
1698675184980.552,13250.0
1698675185001.0454,13241.0
1698675185021.5388,13245.0
1698675185042.0322,13240.0
1698675185062.5256,13236.0
1698675185083.019,13235.0
1698675185103.5122,13236.0
1698675185124.0056,13232.0
1698675185144.499,13229.0
1698675185164.9924,13231.0
1698675185185.4858,13232.0
1698675185205.9792,13241.0
1698675185226.473,13231.0
1698675185246.9658,13213.0
1698675185267.4592,13209.0
1698675185287.9526,13205.0
1698675185308.446,13202.0
1698675185328.9397,13201.0
1698675185349.4329,13207.0
1698675185369.926,13216.0
1698675185390.4194,13219.0
1698675185410.9128,13219.0
1698675185431.4062,13229.0
1698675185451.8997,13231.0
1698675185472.393,13233.0
1698675185492.8865,13238.0
1698675185513.3796,13242.0
1698675185533.873,13250.0
1698675185554.3665,13248.0
1698675185574.86,13249.0
1698675185595.3533,13245.0
1698675185615.8467,13232.0
1698675185636.3398,13230.0
1698675185656.8333,13225.0
1698675185677.327,13219.0
1698675185697.82,13213.0
1698675185718.3137,13205.0
1698675185738.807,13213.0
1698675185759.3003,13212.0
1698675185779.7937,13210.0
1698675185800.2869,13215.0
1698675185820.7805,13217.0
1698675185841.2737,13230.0
1698675185861.767,13232.0
1698675185882.2605,13240.0
1698675185902.754,13256.0
1698675185923.247,13264.0
1698675185943.7405,13268.0
1698675185964.234,13271.0
1698675185984.7273,13277.0
1698675186005.2207,13239.0
1698675186025.714,13282.0
1698675186046.2073,13285.0
1698675186066.7007,13293.0
1698675186087.194,13253.0
1698675186107.6875,13285.0
1698675186128.181,13280.0
1698675186148.6743,13283.0
1698675186169.1675,13279.0
1698675186189.661,13281.0
1698675186210.1543,13283.0
1698675186230.6477,13281.0
1698675186251.141,13274.0
1698675186271.6345,13266.0
1698675186292.128,13254.0
1698675186312.621,13243.0
1698675186333.1145,13234.0
1698675186353.608,13228.0
1698675186374.1013,13226.0
1698675186394.5947,13229.0
1698675186415.088,13238.0
1698675186435.5815,13249.0
1698675186456.0747,13252.0
1698675186476.568,13257.0
1698675186497.0615,13259.0
1698675186517.555,13263.0
1698675186538.0483,13258.0
1698675186558.5415,13261.0
1698675186579.0352,13269.0
1698675186599.5283,13273.0
1698675186620.0215,13273.0
1698675186640.5151,13275.0
1698675186661.0083,13264.0
1698675186681.502,13262.0
1698675186701.9954,13250.0
1698675186722.4883,13241.0
1698675186742.982,13235.0
1698675186763.475,13232.0
1698675186783.9688,13222.0
1698675186804.4622,13225.0
1698675186824.9556,13229.0
1698675186845.449,13238.0
1698675186865.942,13247.0
1698675186886.4355,13251.0
1698675186906.929,13257.0
1698675186927.4224,13264.0
1698675186947.9158,13272.0
1698675186968.4092,13278.0
1698675186988.9023,13250.0
1698675187009.3958,13289.0
1698675187029.8892,13294.0
1698675187050.3826,13258.0
1698675187070.876,13297.0
1698675187091.3694,13294.0
1698675187111.8628,13293.0
1698675187132.356,13286.0
1698675187152.8494,13280.0
1698675187173.3428,13279.0
1698675187193.8362,13276.0
1698675187214.3296,13268.0
1698675187234.823,13272.0
1698675187255.3164,13273.0
1698675187275.8096,13273.0
1698675187296.303,13264.0
1698675187316.7964,13259.0
1698675187337.2898,13250.0
1698675187357.7832,13244.0
1698675187378.2766,13233.0
1698675187398.7698,13223.0
1698675187419.2632,13191.0
1698675187439.7566,13250.0
1698675187460.25,13264.0
1698675187480.7434,13278.0
1698675187501.2368,13300.0
1698675187521.7302,13314.0
1698675187542.2234,13313.0
1698675187562.7168,13300.0
1698675187583.2102,13304.0
1698675187603.7036,13303.0
1698675187624.197,13291.0
1698675187644.6904,13290.0
1698675187665.1836,13293.0
1698675187685.677,13285.0
1698675187706.1704,13205.0
1698675187726.6638,13276.0
1698675187747.1572,13264.0
1698675187767.6506,13262.0
1698675187788.144,13256.0
1698675187808.6372,13250.0
1698675187829.1306,13206.0
1698675187849.624,13242.0
1698675187870.1174,13246.0
1698675187890.6108,13249.0
1698675187911.1042,13269.0
1698675187931.5977,13282.0
1698675187952.0908,13294.0
1698675187972.5842,13254.0
1698675187993.0776,13299.0
1698675188013.571,13305.0
1698675188034.0645,13311.0
1698675188054.558,13307.0
1698675188075.051,13310.0
1698675188095.5444,13312.0
1698675188116.0378,13326.0
1698675188136.5312,13337.0
1698675188157.025,13341.0
1698675188177.518,13347.0
1698675188198.0117,13341.0
1698675188218.5046,13335.0
1698675188238.998,13323.0
1698675188259.4917,13322.0
1698675188279.9849,13315.0
1698675188300.4785,13301.0
1698675188320.9717,13305.0
1698675188341.4648,13317.0
1698675188361.9585,13329.0
1698675188382.4517,13349.0
1698675188402.945,13350.0
1698675188423.4385,13343.0
1698675188443.932,13334.0
1698675188464.4253,13324.0
1698675188484.9185,13316.0
1698675188505.412,13307.0
1698675188525.9053,13298.0
1698675188546.3987,13256.0
1698675188566.892,13286.0
1698675188587.3855,13282.0
1698675188607.879,13277.0
1698675188628.372,13262.0
1698675188648.8655,13267.0
1698675188669.359,13265.0
1698675188689.8523,13267.0
1698675188710.3457,13271.0
1698675188730.839,13281.0
1698675188751.3325,13277.0
1698675188771.8257,13278.0
1698675188792.319,13287.0
1698675188812.8125,13257.0
1698675188833.306,13303.0
1698675188853.7993,13317.0
1698675188874.2927,13328.0
1698675188894.786,13342.0
1698675188915.2793,13355.0
1698675188935.7727,13359.0
1698675188956.266,13365.0
1698675188976.7595,13373.0
1698675188997.253,13369.0
1698675189017.746,13373.0
1698675189038.2395,13379.0
1698675189058.733,13390.0
1698675189079.2263,13392.0
1698675189099.7195,13381.0
1698675189120.2131,13372.0
1698675189140.7063,13356.0
1698675189161.1997,13349.0
1698675189181.693,13334.0
1698675189202.1863,13329.0
1698675189222.68,13327.0
1698675189243.173,13324.0
1698675189263.6667,13329.0
1698675189284.1602,13335.0
1698675189304.6533,13337.0
1698675189325.1467,13339.0
1698675189345.64,13331.0
1698675189366.1335,13328.0
1698675189386.627,13318.0
1698675189407.1204,13318.0
1698675189427.6135,13324.0
1698675189448.107,13326.0
1698675189468.6003,13326.0
1698675189489.0938,13330.0
1698675189509.5872,13320.0
1698675189530.0806,13314.0
1698675189550.574,13314.0
1698675189571.0671,13310.0
1698675189591.5603,13310.0
1698675189612.054,13314.0
1698675189632.5474,13328.0
1698675189653.0408,13329.0
1698675189673.5342,13332.0
1698675189694.027,13340.0
1698675189714.5208,13349.0
1698675189735.0142,13364.0
1698675189755.5076,13378.0
1698675189776.001,13393.0
1698675189796.4944,13406.0
1698675189816.9878,13409.0
1698675189837.481,13413.0
1698675189857.9744,13412.0
1698675189878.4678,13418.0
1698675189898.9612,13412.0
1698675189919.4546,13420.0
1698675189939.948,13430.0
1698675189960.4414,13440.0
1698675189980.9346,13446.0
1698675190001.428,13446.0
1698675190021.9214,13446.0
1698675190042.4148,13436.0
1698675190062.9082,13419.0
1698675190083.4016,13420.0
1698675190103.8948,13418.0
1698675190124.3882,13407.0
1698675190144.8816,13399.0
1698675190165.375,13397.0
1698675190185.8684,13403.0
1698675190206.3618,13380.0
1698675190226.8552,13416.0
1698675190247.3484,13421.0
1698675190267.8418,13424.0
1698675190288.3352,13423.0
1698675190308.8286,13419.0
1698675190329.322,13414.0
1698675190349.8154,13418.0
1698675190370.3086,13416.0
1698675190390.802,13415.0
1698675190411.2954,13416.0
1698675190431.7888,13407.0
1698675190452.2822,13400.0
1698675190472.7756,13392.0
1698675190493.269,13391.0
1698675190513.7622,13390.0
1698675190534.2556,13350.0
1698675190554.749,13402.0
1698675190575.2424,13413.0
1698675190595.7358,13416.0
1698675190616.2292,13409.0
1698675190636.723,13420.0
1698675190657.2158,13430.0
1698675190677.7092,13445.0
1698675190698.2026,13425.0
1698675190718.696,13478.0
1698675190739.1897,13445.0
1698675190759.6829,13489.0
1698675190780.176,13458.0
1698675190800.6694,13498.0
1698675190821.1628,13504.0
1698675190841.6562,13515.0
1698675190862.1497,13531.0
1698675190882.643,13542.0
1698675190903.1365,13548.0
1698675190923.6296,13549.0
1698675190944.123,13542.0
1698675190964.6165,13543.0
1698675190985.11,13529.0
1698675191005.6033,13529.0
1698675191026.0967,13520.0
1698675191046.5898,13507.0
1698675191067.0833,13461.0
1698675191087.577,13493.0
1698675191108.07,13452.0
1698675191128.5637,13498.0
1698675191149.057,13502.0
1698675191169.5503,13501.0
1698675191190.0437,13515.0
1698675191210.5369,13516.0
1698675191231.0305,13509.0
1698675191251.5237,13503.0
1698675191272.017,13511.0
1698675191292.5105,13511.0
1698675191313.004,13503.0
1698675191333.497,13499.0
1698675191353.9905,13492.0
1698675191374.484,13484.0
1698675191394.9773,13471.0
1698675191415.4707,13464.0
1698675191435.964,13463.0
1698675191456.4573,13464.0
1698675191476.9507,13470.0
1698675191497.444,13461.0
1698675191517.9375,13467.0
1698675191538.431,13472.0
1698675191558.9243,13478.0
1698675191579.4175,13487.0
1698675191599.911,13466.0
1698675191620.4043,13520.0
1698675191640.8977,13526.0
1698675191661.391,13528.0
1698675191681.8845,13534.0
1698675191702.378,13535.0
1698675191722.871,13542.0
1698675191743.3645,13553.0
1698675191763.858,13567.0
1698675191784.3513,13583.0
1698675191804.8447,13594.0
1698675191825.338,13596.0
1698675191845.8315,13592.0
1698675191866.3247,13590.0
1698675191886.818,13580.0
1698675191907.3115,13577.0
1698675191927.805,13564.0
1698675191948.2983,13565.0
1698675191968.7915,13564.0
1698675191989.2852,13552.0
1698675192009.7783,13541.0
1698675192030.2715,13537.0
1698675192050.7651,13544.0
1698675192071.2583,13550.0
1698675192091.752,13555.0
1698675192112.2454,13554.0
1698675192132.7383,13549.0
1698675192153.232,13545.0
1698675192173.725,13502.0
1698675192194.2188,13537.0
1698675192214.7122,13542.0
1698675192235.2056,13542.0
1698675192255.699,13536.0
1698675192276.192,13530.0
1698675192296.6855,13527.0
1698675192317.179,13523.0
1698675192337.6724,13516.0
1698675192358.1658,13514.0
1698675192378.6592,13516.0
1698675192399.1523,13514.0
1698675192419.6458,13526.0
1698675192440.1392,13482.0
1698675192460.6326,13521.0
1698675192481.126,13520.0
1698675192501.6194,13529.0
1698675192522.1128,13538.0
1698675192542.606,13548.0
1698675192563.0994,13562.0
1698675192583.5928,13572.0
1698675192604.0862,13582.0
1698675192624.5796,13588.0
1698675192645.073,13553.0
1698675192665.5664,13600.0
1698675192686.0596,13599.0
1698675192706.553,13604.0
1698675192727.0464,13618.0
1698675192747.5398,13640.0
1698675192768.0332,13647.0
1698675192788.5266,13643.0
1698675192809.0198,13638.0
1698675192829.5132,13638.0
1698675192850.0066,13628.0
1698675192870.5,13613.0
1698675192890.9934,13615.0
1698675192911.4868,13603.0
1698675192931.9802,13553.0
1698675192952.4734,13588.0
1698675192972.9668,13595.0
1698675192993.4602,13608.0
1698675193013.9536,13610.0
1698675193034.447,13614.0
1698675193054.9404,13611.0
1698675193075.4336,13611.0
1698675193095.927,13598.0
1698675193116.4204,13589.0
1698675193136.9138,13590.0
1698675193157.4072,13595.0
1698675193177.9006,13587.0
1698675193198.394,13575.0
1698675193218.8872,13565.0
1698675193239.3806,13553.0
1698675193259.874,13547.0
1698675193280.3674,13544.0
1698675193300.8608,13545.0
1698675193321.3542,13552.0
1698675193341.8477,13559.0
1698675193362.3408,13558.0
1698675193382.8342,13554.0
1698675193403.3276,13552.0
1698675193423.821,13557.0
1698675193444.3145,13561.0
1698675193464.808,13575.0
1698675193485.301,13591.0
1698675193505.7944,13601.0
1698675193526.2878,13607.0
1698675193546.7812,13618.0
1698675193567.275,13623.0
1698675193587.768,13580.0
1698675193608.2617,13627.0
1698675193628.7546,13630.0
1698675193649.248,13639.0
1698675193669.7417,13650.0
1698675193690.2349,13660.0
1698675193710.7285,13656.0
1698675193731.2217,13651.0
1698675193751.7148,13652.0
1698675193772.2085,13647.0
1698675193792.7017,13639.0
1698675193813.195,13621.0
1698675193833.6885,13613.0
1698675193854.182,13610.0
1698675193874.6753,13583.0
1698675193895.1685,13575.0
1698675193915.662,13578.0
1698675193936.1553,13592.0
1698675193956.6487,13605.0
1698675193977.142,13611.0
1698675193997.6355,13613.0
1698675194018.129,13610.0
1698675194038.622,13572.0
1698675194059.1155,13611.0
1698675194079.609,13610.0
1698675194100.1023,13616.0
1698675194120.5957,13617.0
1698675194141.089,13605.0
1698675194161.5825,13599.0
1698675194182.0757,13587.0
1698675194202.569,13578.0
1698675194223.0625,13570.0
1698675194243.556,13579.0
1698675194264.0493,13580.0
1698675194284.5427,13572.0
1698675194305.036,13562.0
1698675194325.5293,13512.0
1698675194346.0227,13556.0
1698675194366.516,13558.0
1698675194387.0095,13565.0
1698675194407.503,13577.0
1698675194427.996,13587.0
1698675194448.4895,13593.0
1698675194468.983,13593.0
1698675194489.4763,13592.0
1698675194509.9695,13597.0
1698675194530.4631,13603.0
1698675194550.9563,13603.0
1698675194571.4497,13599.0
1698675194591.943,13602.0
1698675194612.4363,13603.0
1698675194632.93,13614.0
1698675194653.423,13617.0
1698675194673.9167,13619.0
1698675194694.4102,13614.0
1698675194714.9033,13602.0
1698675194735.3967,13597.0
1698675194755.89,13587.0
1698675194776.3835,13583.0
1698675194796.877,13570.0
1698675194817.3704,13556.0
1698675194837.8635,13555.0
1698675194858.357,13561.0
1698675194878.8503,13578.0
1698675194899.3438,13588.0
1698675194919.8372,13592.0
1698675194940.3306,13592.0
1698675194960.824,13598.0
1698675194981.3171,13592.0
1698675195001.8103,13593.0
1698675195022.304,13598.0
1698675195042.7974,13598.0
1698675195063.2908,13595.0
1698675195083.7842,13582.0
1698675195104.277,13579.0
1698675195124.7708,13566.0
1698675195145.2642,13556.0
1698675195165.7576,13551.0
1698675195186.251,13549.0
1698675195206.7444,13542.0
1698675195227.2378,13545.0
1698675195247.731,13552.0
1698675195268.2244,13545.0
1698675195288.7178,13542.0
1698675195309.2112,13509.0
1698675195329.7046,13552.0
1698675195350.198,13563.0
1698675195370.6914,13572.0
1698675195391.1846,13581.0
1698675195411.678,13595.0
1698675195432.1714,13598.0
1698675195452.6648,13599.0
1698675195473.1582,13595.0
1698675195493.6516,13600.0
1698675195514.1448,13596.0
1698675195534.6382,13608.0
1698675195555.1316,13612.0
1698675195575.625,13607.0
1698675195596.1184,13612.0
1698675195616.6118,13615.0
1698675195637.1052,13611.0
1698675195657.5984,13613.0
1698675195678.0918,13607.0
1698675195698.5852,13597.0
1698675195719.0786,13583.0
1698675195739.572,13569.0
1698675195760.0654,13558.0
1698675195780.5586,13546.0
1698675195801.052,13536.0
1698675195821.5454,13523.0
1698675195842.0388,13512.0
1698675195862.5322,13516.0
1698675195883.0256,13526.0
1698675195903.519,13532.0
1698675195924.0122,13539.0
1698675195944.5056,13550.0
1698675195964.999,13568.0
1698675195985.4924,13585.0
1698675196005.9858,13605.0
1698675196026.4792,13613.0
1698675196046.973,13619.0
1698675196067.4658,13620.0
1698675196087.9592,13620.0
1698675196108.4526,13617.0
1698675196128.946,13608.0
1698675196149.4397,13618.0
1698675196169.9329,13625.0
1698675196190.426,13641.0
1698675196210.9194,13656.0
1698675196231.4128,13663.0
1698675196251.9062,13667.0
1698675196272.3997,13668.0
1698675196292.893,13671.0
1698675196313.3865,13677.0
1698675196333.8796,13637.0
1698675196354.373,13681.0
1698675196374.8665,13685.0
1698675196395.36,13692.0
1698675196415.8533,13690.0
1698675196436.3467,13692.0
1698675196456.8398,13694.0
1698675196477.3333,13692.0
1698675196497.827,13691.0
1698675196518.32,13650.0
1698675196538.8137,13684.0
1698675196559.307,13683.0
1698675196579.8003,13679.0
1698675196600.2937,13662.0
1698675196620.7869,13657.0
1698675196641.2805,13642.0
1698675196661.7737,13637.0
1698675196682.267,13626.0
1698675196702.7605,13625.0
1698675196723.254,13623.0
1698675196743.747,13622.0
1698675196764.2405,13626.0
1698675196784.734,13631.0
1698675196805.2273,13646.0
1698675196825.7207,13650.0
1698675196846.214,13658.0
1698675196866.7073,13672.0
1698675196887.2007,13691.0
1698675196907.694,13715.0
1698675196928.1875,13736.0
1698675196948.681,13755.0
1698675196969.1743,13785.0
1698675196989.6675,13827.0
1698675197010.161,13872.0
1698675197030.6543,13923.0
1698675197051.1477,13984.0
1698675197071.641,14041.0
1698675197092.1345,14101.0
1698675197112.628,14165.0
1698675197133.121,14227.0
1698675197153.6145,14293.0
1698675197174.108,14345.0
1698675197194.6013,14390.0
1698675197215.0947,14437.0
1698675197235.588,14485.0
1698675197256.0815,14524.0
1698675197276.5747,14568.0
1698675197297.068,14600.0
1698675197317.5615,14628.0
1698675197338.055,14661.0
1698675197358.5483,14678.0
1698675197379.0415,14708.0
1698675197399.5352,14731.0
1698675197420.0283,14743.0
1698675197440.5215,14768.0
1698675197461.0151,14786.0
1698675197481.5083,14800.0
1698675197502.002,14819.0
1698675197522.4954,14831.0
1698675197542.9883,14801.0
1698675197563.482,14859.0
1698675197583.975,14875.0
1698675197604.4688,14886.0
1698675197624.9622,14892.0
1698675197645.4556,14901.0
1698675197665.949,14909.0
1698675197686.442,14916.0
1698675197706.9355,14929.0
1698675197727.429,14929.0
1698675197747.9224,14941.0
1698675197768.4158,14949.0
1698675197788.9092,14953.0
1698675197809.4023,14962.0
1698675197829.8958,14965.0
1698675197850.3892,14970.0
1698675197870.8826,14978.0
1698675197891.376,14984.0
1698675197911.8694,14994.0
1698675197932.3628,14996.0
1698675197952.856,15004.0
1698675197973.3494,15016.0
1698675197993.8428,15020.0
1698675198014.3362,15028.0
1698675198034.8296,15042.0
1698675198055.323,15044.0
1698675198075.8164,15049.0
1698675198096.3096,15057.0
1698675198116.803,15067.0
1698675198137.2964,15073.0
1698675198157.7898,15076.0
1698675198178.2832,15080.0
1698675198198.7766,15089.0
1698675198219.2698,15096.0
1698675198239.7632,15096.0
1698675198260.2566,15110.0
1698675198280.75,15106.0
1698675198301.2434,15110.0
1698675198321.7368,15114.0
1698675198342.2302,15121.0
1698675198362.7234,15120.0
1698675198383.2168,15125.0
1698675198403.7102,15126.0
1698675198424.2036,15131.0
1698675198444.697,15138.0
1698675198465.1904,15140.0
1698675198485.6836,15147.0
1698675198506.177,15146.0
1698675198526.6704,15151.0
1698675198547.1638,15108.0
1698675198567.6572,15118.0
1698675198588.1506,15170.0
1698675198608.644,15168.0
1698675198629.1372,15181.0
1698675198649.6306,15183.0
1698675198670.124,15185.0
1698675198690.6174,15196.0
1698675198711.1108,15201.0
1698675198731.6042,15198.0
1698675198752.0977,15204.0
1698675198772.5908,15214.0
1698675198793.0842,15216.0
1698675198813.5776,15220.0
1698675198834.071,15218.0
1698675198854.5645,15224.0
1698675198875.058,15227.0
1698675198895.551,15193.0
1698675198916.0444,15238.0
1698675198936.5378,15253.0
1698675198957.0312,15255.0
1698675198977.525,15263.0
1698675198998.018,15268.0
1698675199018.5117,15276.0
1698675199039.0046,15282.0
1698675199059.498,15291.0
1698675199079.9917,15287.0
1698675199100.4849,15288.0
1698675199120.9785,15290.0
1698675199141.4717,15287.0
1698675199161.9648,15288.0
1698675199182.4585,15292.0
1698675199202.9517,15289.0
1698675199223.445,15291.0
1698675199243.9385,15289.0
1698675199264.432,15292.0
1698675199284.9253,15297.0
1698675199305.4185,15297.0
1698675199325.912,15304.0
1698675199346.4053,15308.0
1698675199366.8987,15307.0
1698675199387.392,15307.0
1698675199407.8855,15308.0
1698675199428.379,15306.0
1698675199448.872,15301.0
1698675199469.3655,15311.0
1698675199489.859,15269.0
1698675199510.3523,15317.0
1698675199530.8457,15319.0
1698675199551.339,15319.0
1698675199571.8325,15316.0
1698675199592.3257,15317.0
1698675199612.819,15329.0
1698675199633.3125,15330.0
1698675199653.806,15331.0
1698675199674.2993,15331.0
1698675199694.7927,15336.0
1698675199715.286,15338.0
1698675199735.7793,15340.0
1698675199756.2727,15344.0
1698675199776.766,15347.0
1698675199797.2595,15345.0
1698675199817.753,15346.0
1698675199838.246,15348.0
1698675199858.7395,15351.0
1698675199879.233,15355.0
1698675199899.7263,15357.0
1698675199920.2195,15358.0
1698675199940.7131,15359.0
1698675199961.2063,15360.0
1698675199981.6997,15359.0
1698675200002.193,15366.0
1698675200022.6863,15368.0
1698675200043.18,15375.0
1698675200063.673,15380.0
1698675200084.1667,15389.0
1698675200104.6602,15402.0
1698675200125.1533,15414.0
1698675200145.6467,15419.0
1698675200166.14,15422.0
1698675200186.6335,15438.0
1698675200207.127,15437.0
1698675200227.6204,15442.0
1698675200248.1135,15453.0
1698675200268.607,15410.0
1698675200289.1003,15465.0
1698675200309.5938,15469.0
1698675200330.0872,15476.0
1698675200350.5806,15481.0
1698675200371.074,15484.0
1698675200391.5671,15445.0
1698675200412.0603,15492.0
1698675200432.554,15496.0
1698675200453.0474,15452.0
1698675200473.5408,15499.0
1698675200494.0342,15506.0
1698675200514.527,15508.0
1698675200535.0208,15502.0
1698675200555.5142,15507.0
1698675200576.0076,15502.0
1698675200596.501,15499.0
1698675200616.9944,15499.0
1698675200637.4878,15496.0
1698675200657.981,15490.0
1698675200678.4744,15490.0
1698675200698.9678,15441.0
1698675200719.4612,15486.0
1698675200739.9546,15485.0
1698675200760.448,15486.0
1698675200780.9414,15490.0
1698675200801.4346,15492.0
1698675200821.928,15493.0
1698675200842.4214,15499.0
1698675200862.9148,15504.0
1698675200883.4082,15503.0
1698675200903.9016,15511.0
1698675200924.3948,15518.0
1698675200944.8882,15525.0
1698675200965.3816,15530.0
1698675200985.875,15493.0
1698675201006.3684,15540.0
1698675201026.8618,15537.0
1698675201047.3552,15539.0
1698675201067.8484,15538.0
1698675201088.3418,15531.0
1698675201108.8352,15526.0
1698675201129.3286,15522.0
1698675201149.822,15518.0
1698675201170.3154,15511.0
1698675201190.8086,15511.0
1698675201211.302,15507.0
1698675201231.7954,15507.0
1698675201252.2888,15499.0
1698675201272.7822,15494.0
1698675201293.2756,15493.0
1698675201313.769,15493.0
1698675201334.2622,15487.0
1698675201354.7556,15484.0
1698675201375.249,15481.0
1698675201395.7424,15487.0
1698675201416.2358,15485.0
1698675201436.7292,15489.0
1698675201457.223,15486.0
1698675201477.7158,15489.0
1698675201498.2092,15486.0
1698675201518.7026,15489.0
1698675201539.196,15490.0
1698675201559.6897,15492.0
1698675201580.1829,15492.0
1698675201600.676,15493.0
1698675201621.1694,15497.0
1698675201641.6628,15493.0
1698675201662.1562,15495.0
1698675201682.6497,15493.0
1698675201703.143,15497.0
1698675201723.6365,15500.0
1698675201744.1296,15455.0
1698675201764.623,15494.0
1698675201785.1165,15492.0
1698675201805.61,15498.0
1698675201826.1033,15500.0
1698675201846.5967,15505.0
1698675201867.0898,15498.0
1698675201887.5833,15503.0
1698675201908.077,15503.0
1698675201928.57,15503.0
1698675201949.0637,15509.0
1698675201969.557,15508.0
1698675201990.0503,15508.0
1698675202010.5437,15511.0
1698675202031.0369,15505.0
1698675202051.5305,15506.0
1698675202072.0237,15503.0
1698675202092.517,15504.0
1698675202113.0105,15501.0
1698675202133.504,15495.0
1698675202153.997,15499.0
1698675202174.4905,15450.0
1698675202194.984,15450.0
1698675202215.4773,15496.0
1698675202235.9707,15498.0
1698675202256.464,15492.0
1698675202276.9573,15451.0
1698675202297.4507,15490.0
1698675202317.944,15487.0
1698675202338.4375,15489.0
1698675202358.931,15489.0
1698675202379.4243,15490.0
1698675202399.9175,15495.0
1698675202420.411,15495.0
1698675202440.9043,15497.0
1698675202461.3977,15494.0
1698675202481.891,15506.0
1698675202502.3845,15507.0
1698675202522.878,15517.0
1698675202543.371,15519.0
1698675202563.8645,15525.0
1698675202584.358,15531.0
1698675202604.8513,15536.0
1698675202625.3447,15533.0
1698675202645.838,15542.0
1698675202666.3315,15546.0
1698675202686.8247,15555.0
1698675202707.318,15559.0
1698675202727.8115,15566.0
1698675202748.305,15567.0
1698675202768.7983,15564.0
1698675202789.2915,15566.0
1698675202809.7852,15560.0
1698675202830.2783,15555.0
1698675202850.7715,15548.0
1698675202871.2651,15539.0
1698675202891.7583,15529.0
1698675202912.252,15471.0
1698675202932.7454,15515.0
1698675202953.2383,15509.0
1698675202973.732,15504.0
1698675202994.225,15502.0
1698675203014.7188,15497.0
1698675203035.2122,15451.0
1698675203055.7056,15492.0
1698675203076.199,15482.0
1698675203096.692,15482.0
1698675203117.1855,15439.0
1698675203137.679,15476.0
1698675203158.1724,15476.0
1698675203178.6658,15474.0
1698675203199.1592,15476.0
1698675203219.6523,15472.0
1698675203240.1458,15473.0
1698675203260.6392,15467.0
1698675203281.1326,15465.0
1698675203301.626,15456.0
1698675203322.1194,15455.0
1698675203342.6128,15410.0
1698675203363.106,15458.0
1698675203383.5994,15461.0
1698675203404.0928,15459.0
1698675203424.5862,15460.0
1698675203445.0796,15459.0
1698675203465.573,15459.0
1698675203486.0664,15462.0
1698675203506.5596,15461.0
1698675203527.053,15464.0
1698675203547.5464,15417.0
1698675203568.0398,15459.0
1698675203588.5332,15463.0
1698675203609.0266,15459.0
1698675203629.5198,15459.0
1698675203650.0132,15461.0
1698675203670.5066,15457.0
1698675203711.4934,15412.0
1698675203731.9868,15455.0
1698675203752.4802,15455.0
1698675203772.9734,15456.0
1698675203793.4668,15411.0
1698675203813.9602,15456.0
1698675203834.4536,15457.0
1698675203854.947,15454.0
1698675203875.4404,15459.0
1698675203895.9336,15460.0
1698675203916.427,15456.0
1698675203936.9204,15457.0
1698675203957.4138,15455.0
1698675203977.9072,15459.0
1698675203998.4006,15464.0
1698675204018.894,15462.0
1698675204039.3872,15457.0
1698675204059.8806,15459.0
1698675204080.374,15459.0
1698675204100.8674,15458.0
1698675204121.3608,15458.0
1698675204141.8542,15458.0
1698675204162.3477,15454.0
1698675204182.8408,15464.0
1698675204203.3342,15459.0
1698675204223.8276,15460.0
1698675204244.321,15463.0
1698675204264.8145,15463.0
1698675204285.308,15456.0
1698675204305.801,15460.0
1698675204326.2944,15455.0
1698675204346.7878,15454.0
1698675204367.2812,15449.0
1698675204387.775,15444.0
1698675204408.268,15446.0
1698675204428.7617,15392.0
1698675204449.2546,15437.0
1698675204469.748,15438.0
1698675204490.2417,15435.0
1698675204510.7349,15440.0
1698675204531.2285,15428.0
1698675204551.7217,15429.0
1698675204572.2148,15424.0
1698675204592.7085,15427.0
1698675204613.2017,15420.0
1698675204633.695,15423.0
1698675204654.1885,15421.0
1698675204674.682,15423.0
1698675204695.1753,15415.0
1698675204715.6685,15417.0
1698675204736.162,15417.0
1698675204756.6553,15412.0
1698675204777.1487,15415.0
1698675204797.642,15419.0
1698675204818.1355,15417.0
1698675204838.629,15414.0
1698675204859.122,15416.0
1698675204879.6155,15417.0
1698675204900.109,15418.0
1698675204920.6023,15415.0
1698675204941.0957,15376.0
1698675204961.589,15414.0
1698675204982.0825,15414.0
1698675205002.5757,15420.0
1698675205023.069,15415.0
1698675205043.5625,15412.0
1698675205064.056,15408.0
1698675205084.5493,15408.0
1698675205105.0427,15407.0
1698675205125.536,15395.0
1698675205146.0293,15396.0
1698675205166.5227,15391.0
1698675205187.016,15384.0
1698675205207.5095,15375.0
1698675205228.003,15380.0
1698675205248.496,15377.0
1698675205268.9895,15370.0
1698675205289.483,15372.0
1698675205309.9763,15373.0
1698675205330.4695,15369.0
1698675205350.9631,15371.0
1698675205371.4563,15366.0
1698675205391.9497,15369.0
1698675205412.443,15367.0
1698675205432.9363,15363.0
1698675205453.43,15369.0
1698675205473.923,15363.0
1698675205494.4167,15368.0
1698675205514.9102,15366.0
1698675205535.4033,15367.0
1698675205555.8967,15370.0
1698675205576.39,15367.0
1698675205596.8835,15369.0
1698675205617.377,15365.0
1698675205637.8704,15368.0
1698675205658.3635,15367.0
1698675205678.857,15370.0
1698675205699.3503,15360.0
1698675205719.8438,15354.0
1698675205740.3372,15346.0
1698675205760.8306,15343.0
1698675205781.324,15330.0
1698675205801.8171,15328.0
1698675205822.3103,15324.0
1698675205842.804,15317.0
1698675205863.2974,15315.0
1698675205883.7908,15256.0
1698675205904.2842,15302.0
1698675205924.777,15299.0
1698675205945.2708,15303.0
1698675205965.7642,15293.0
1698675205986.2576,15295.0
1698675206006.751,15284.0
1698675206027.2444,15282.0
1698675206047.7378,15280.0
1698675206068.231,15271.0
1698675206088.7244,15275.0
1698675206109.2178,15275.0
1698675206129.7112,15273.0
1698675206150.2046,15274.0
1698675206170.698,15271.0
1698675206191.1914,15271.0
1698675206211.6846,15271.0
1698675206232.178,15271.0
1698675206252.6714,15265.0
1698675206273.1648,15224.0
1698675206293.6582,15270.0
1698675206314.1516,15272.0
1698675206334.6448,15265.0
1698675206355.1382,15256.0
1698675206375.6316,15249.0
1698675206396.125,15238.0
1698675206416.6184,15226.0
1698675206437.1118,15220.0
1698675206457.6052,15207.0
1698675206478.0984,15198.0
1698675206498.5918,15186.0
1698675206519.0852,15175.0
1698675206539.5786,15173.0
1698675206560.072,15168.0
1698675206580.5654,15164.0
1698675206601.0586,15159.0
1698675206621.552,15153.0
1698675206642.0454,15149.0
1698675206662.5388,15143.0
1698675206683.0322,15093.0
1698675206703.5256,15139.0
1698675206724.019,15133.0
1698675206744.5122,15127.0
1698675206765.0056,15128.0
1698675206785.499,15124.0
1698675206805.9924,15122.0
1698675206826.4858,15114.0
1698675206846.9792,15111.0
1698675206867.473,15110.0
1698675206887.9658,15112.0
1698675206908.4592,15110.0
1698675206928.9526,15104.0
1698675206949.446,15105.0
1698675206969.9397,15102.0
1698675206990.4329,15098.0
1698675207010.926,15098.0
1698675207031.4194,15094.0
1698675207051.9128,15080.0
1698675207072.4062,15072.0
1698675207092.8997,15062.0
1698675207113.393,15044.0
1698675207133.8865,14983.0
1698675207154.3796,15017.0
1698675207174.873,15001.0
1698675207195.3665,14987.0
1698675207215.86,14983.0
1698675207236.3533,14972.0
1698675207256.8467,14966.0
1698675207277.3398,14958.0
1698675207297.8333,14952.0
1698675207318.327,14951.0
1698675207338.82,14943.0
1698675207359.3137,14937.0
1698675207379.807,14936.0
1698675207400.3003,14926.0
1698675207420.7937,14926.0
1698675207441.2869,14922.0
1698675207461.7805,14920.0
1698675207482.2737,14876.0
1698675207502.767,14914.0
1698675207523.2605,14915.0
1698675207543.754,14919.0
1698675207564.247,14919.0
1698675207584.7405,14916.0
1698675207605.234,14918.0
1698675207625.7273,14920.0
1698675207646.2207,14878.0
1698675207666.714,14923.0
1698675207687.2073,14928.0
1698675207707.7007,14930.0
1698675207728.194,14925.0
1698675207748.6875,14925.0
1698675207769.181,14924.0
1698675207789.6743,14916.0
1698675207810.1675,14871.0
1698675207830.661,14898.0
1698675207851.1543,14887.0
1698675207871.6477,14879.0
1698675207892.141,14864.0
1698675207912.6345,14854.0
1698675207933.128,14843.0
1698675207953.621,14828.0
1698675207974.1145,14824.0
1698675207994.608,14821.0
1698675208015.1013,14775.0
1698675208035.5947,14774.0
1698675208056.088,14812.0
1698675208076.5815,14811.0
1698675208097.0747,14813.0
1698675208117.568,14809.0
1698675208138.0615,14804.0
1698675208158.555,14806.0
1698675208179.0483,14806.0
1698675208199.5415,14815.0
1698675208220.0352,14805.0
1698675208240.5283,14806.0
1698675208261.0215,14808.0
1698675208281.5151,14809.0
1698675208302.0083,14767.0
1698675208322.502,14810.0
1698675208342.9954,14812.0
1698675208363.4883,14814.0
1698675208383.982,14816.0
1698675208404.475,14817.0
1698675208424.9688,14825.0
1698675208445.4622,14825.0
1698675208465.9556,14827.0
1698675208486.449,14830.0
1698675208506.942,14785.0
1698675208527.4355,14820.0
1698675208547.929,14818.0
1698675208568.4224,14804.0
1698675208588.9158,14800.0
1698675208609.4092,14788.0
1698675208629.9023,14778.0
1698675208650.3958,14772.0
1698675208670.8892,14768.0
1698675208691.3826,14763.0
1698675208711.876,14771.0
1698675208732.3694,14767.0
1698675208752.8628,14776.0
1698675208773.356,14777.0
1698675208793.8494,14784.0
1698675208814.3428,14785.0
1698675208834.8362,14795.0
1698675208855.3296,14802.0
1698675208875.823,14805.0
1698675208896.3164,14805.0
1698675208916.8096,14802.0
1698675208937.303,14795.0
1698675208957.7964,14791.0
1698675208978.2898,14785.0
1698675208998.7832,14775.0
1698675209019.2766,14766.0
1698675209039.7698,14763.0
1698675209060.2632,14759.0
1698675209080.7566,14712.0
1698675209101.25,14754.0
1698675209121.7434,14754.0
1698675209142.2368,14754.0
1698675209162.7302,14755.0
1698675209183.2234,14705.0
1698675209203.7168,14753.0
1698675209224.2102,14744.0
1698675209244.7036,14742.0
1698675209265.197,14736.0
1698675209285.6904,14725.0
1698675209306.1836,14710.0
1698675209326.677,14695.0
1698675209347.1704,14685.0
1698675209367.6638,14675.0
1698675209388.1572,14670.0
1698675209408.6506,14660.0
1698675209429.144,14651.0
1698675209449.6372,14604.0
1698675209470.1306,14649.0
1698675209490.624,14644.0
1698675209511.1174,14641.0
1698675209531.6108,14644.0
1698675209552.1042,14638.0
1698675209572.5977,14636.0
1698675209593.0908,14632.0
1698675209613.5842,14639.0
1698675209634.0776,14632.0
1698675209654.571,14627.0
1698675209675.0645,14627.0
1698675209695.558,14622.0
1698675209716.051,14622.0
1698675209736.5444,14627.0
1698675209757.0378,14625.0
1698675209777.5312,14629.0
1698675209798.025,14619.0
1698675209818.518,14624.0
1698675209839.0117,14631.0
1698675209859.5046,14626.0
1698675209879.998,14630.0
1698675209900.4917,14630.0
1698675209920.9849,14629.0
1698675209941.4785,14630.0
1698675209961.9717,14631.0
1698675209982.4648,14580.0
1698675210002.9585,14615.0
1698675210023.4517,14600.0
1698675210043.945,14588.0
1698675210064.4385,14580.0
1698675210084.932,14571.0
1698675210105.4253,14562.0
1698675210125.9185,14556.0
1698675210146.412,14545.0
1698675210166.9053,14550.0
1698675210187.3987,14547.0
1698675210207.892,14549.0
1698675210228.3855,14545.0
1698675210248.879,14546.0
1698675210269.372,14550.0
1698675210289.8655,14543.0
1698675210310.359,14554.0
1698675210330.8523,14556.0
1698675210351.3457,14553.0
1698675210371.839,14557.0
1698675210392.3325,14559.0
1698675210412.8257,14561.0
1698675210433.319,14524.0
1698675210453.8125,14572.0
1698675210474.306,14573.0
1698675210494.7993,14576.0
1698675210515.2927,14576.0
1698675210535.786,14584.0
1698675210556.2793,14588.0
1698675210576.7727,14590.0
1698675210597.266,14592.0
1698675210617.7595,14596.0
1698675210638.253,14598.0
1698675210658.746,14603.0
1698675210679.2395,14591.0
1698675210699.733,14581.0
1698675210720.2263,14571.0
1698675210740.7195,14566.0
1698675210761.2131,14558.0
1698675210781.7063,14557.0
1698675210802.1997,14546.0
1698675210822.693,14545.0
1698675210843.1863,14541.0
1698675210863.68,14541.0
1698675210884.173,14546.0
1698675210904.6667,14544.0
1698675210925.1602,14544.0
1698675210945.6533,14551.0
1698675210966.1467,14547.0
1698675210986.64,14553.0
1698675211007.1335,14550.0
1698675211027.627,14547.0
1698675211048.1204,14553.0
1698675211068.6135,14564.0
1698675211089.107,14560.0
1698675211109.6003,14565.0
1698675211130.0938,14572.0
1698675211150.5872,14577.0
1698675211171.0806,14582.0
1698675211191.574,14584.0
1698675211212.0671,14587.0
1698675211232.5603,14551.0
1698675211253.054,14601.0
1698675211273.5474,14609.0
1698675211294.0408,14614.0
1698675211314.5342,14617.0
1698675211335.027,14616.0
1698675211355.5208,14617.0
1698675211376.0142,14609.0
1698675211396.5076,14600.0
1698675211417.001,14600.0
1698675211437.4944,14594.0
1698675211457.9878,14593.0
1698675211478.481,14585.0
1698675211498.9744,14580.0
1698675211519.4678,14576.0
1698675211539.9612,14581.0
1698675211560.4546,14579.0
1698675211580.948,14586.0
1698675211601.4414,14589.0
1698675211621.9346,14588.0
1698675211642.428,14590.0
1698675211662.9214,14596.0
1698675211683.4148,14598.0
1698675211703.9082,14602.0
1698675211724.4016,14601.0
1698675211744.8948,14562.0
1698675211765.3882,14608.0
1698675211785.8816,14614.0
1698675211806.375,14617.0
1698675211826.8684,14621.0
1698675211847.3618,14617.0
1698675211867.8552,14618.0
1698675211888.3484,14629.0
1698675211908.8418,14630.0
1698675211929.3352,14638.0
1698675211949.8286,14594.0
1698675211970.322,14644.0
1698675211990.8154,14648.0
1698675212011.3086,14647.0
1698675212031.802,14644.0
1698675212052.2954,14641.0
1698675212072.7888,14624.0
1698675212093.2822,14621.0
1698675212113.7756,14606.0
1698675212134.269,14557.0
1698675212154.7622,14552.0
1698675212175.2556,14589.0
1698675212195.749,14577.0
1698675212216.2424,14579.0
1698675212236.7358,14571.0
1698675212257.2292,14567.0
1698675212277.723,14567.0
1698675212298.2158,14562.0
1698675212318.7092,14560.0
1698675212339.2026,14555.0
1698675212359.696,14557.0
1698675212380.1897,14558.0
1698675212400.6829,14559.0
1698675212421.176,14556.0
1698675212441.6694,14560.0
1698675212462.1628,14557.0
1698675212482.6562,14562.0
1698675212503.1497,14564.0
1698675212523.643,14564.0
1698675212544.1365,14563.0
1698675212564.6296,14565.0
1698675212585.123,14567.0
1698675212605.6165,14572.0
1698675212626.11,14576.0
1698675212646.6033,14579.0
1698675212667.0967,14581.0
1698675212687.5898,14584.0
1698675212708.0833,14578.0
1698675212728.577,14569.0
1698675212749.07,14559.0
1698675212769.5637,14546.0
1698675212790.057,14535.0
1698675212810.5503,14523.0
1698675212831.0437,14509.0
1698675212851.5369,14499.0
1698675212872.0305,14491.0
1698675212892.5237,14491.0
1698675212913.017,14484.0
1698675212933.5105,14483.0
1698675212954.004,14484.0
1698675212974.497,14482.0
1698675212994.9905,14476.0
1698675213015.484,14476.0
1698675213035.9773,14474.0
1698675213056.4707,14476.0
1698675213076.964,14472.0
1698675213097.4573,14478.0
1698675213117.9507,14479.0
1698675213138.444,14485.0
1698675213158.9375,14482.0
1698675213179.431,14486.0
1698675213199.9243,14488.0
1698675213220.4175,14489.0
1698675213240.911,14499.0
1698675213261.4043,14503.0
1698675213281.8977,14509.0
1698675213302.391,14509.0
1698675213322.8845,14520.0
1698675213343.378,14521.0
1698675213363.871,14522.0
1698675213384.3645,14484.0
1698675213404.858,14525.0
1698675213425.3513,14516.0
1698675213445.8447,14510.0
1698675213466.338,14501.0
1698675213486.8315,14496.0
1698675213507.3247,14486.0
1698675213527.818,14478.0
1698675213548.3115,14469.0
1698675213568.805,14465.0
1698675213589.2983,14459.0
1698675213609.7915,14461.0
1698675213630.2852,14461.0
1698675213650.7783,14463.0
1698675213671.2715,14463.0
1698675213691.7651,14464.0
1698675213712.2583,14419.0
1698675213732.752,14464.0
1698675213753.2454,14464.0
1698675213773.7383,14469.0
1698675213794.232,14475.0
1698675213814.725,14474.0
1698675213835.2188,14482.0
1698675213855.7122,14482.0
1698675213876.2056,14487.0
1698675213896.699,14489.0
1698675213917.192,14448.0
1698675213937.6855,14492.0
1698675213958.179,14502.0
1698675213978.6724,14508.0
1698675213999.1658,14516.0
1698675214019.6592,14523.0
1698675214040.1523,14531.0
1698675214060.6458,14534.0
1698675214081.1392,14545.0
1698675214101.6326,14540.0
1698675214122.126,14505.0
1698675214142.6194,14540.0
1698675214163.1128,14493.0
1698675214183.606,14532.0
1698675214204.0994,14525.0
1698675214224.5928,14514.0
1698675214245.0862,14516.0
1698675214265.5796,14518.0
1698675214286.073,14510.0
1698675214306.5664,14513.0
1698675214327.0596,14515.0
1698675214347.553,14520.0
1698675214368.0464,14521.0
1698675214388.5398,14525.0
1698675214409.0332,14528.0
1698675214429.5266,14533.0
1698675214450.0198,14535.0
1698675214470.5132,14541.0
1698675214491.0066,14545.0
1698675214511.5,14547.0
1698675214531.9934,14556.0
1698675214552.4868,14559.0
1698675214572.9802,14563.0
1698675214593.4734,14571.0
1698675214613.9668,14535.0
1698675214634.4602,14592.0
1698675214654.9536,14601.0
1698675214675.447,14603.0
1698675214695.9404,14613.0
1698675214716.4336,14618.0
1698675214736.927,14623.0
1698675214757.4204,14632.0
1698675214777.9138,14640.0
1698675214798.4072,14645.0
1698675214818.9006,14647.0
1698675214839.394,14648.0
1698675214859.8872,14646.0
1698675214880.3806,14642.0
1698675214900.874,14626.0
1698675214921.3674,14627.0
1698675214941.8608,14628.0
1698675214962.3542,14619.0
1698675214982.8477,14623.0
1698675215003.3408,14624.0
1698675215023.8342,14629.0
1698675215044.3276,14638.0
1698675215064.821,14643.0
1698675215085.3145,14654.0
1698675215105.808,14659.0
1698675215126.301,14664.0
1698675215146.7944,14662.0
1698675215167.2878,14659.0
1698675215187.7812,14652.0
1698675215208.275,14649.0
1698675215228.768,14639.0
1698675215249.2617,14635.0
1698675215269.7546,14632.0
1698675215290.248,14625.0
1698675215310.7417,14620.0
1698675215331.2349,14625.0
1698675215351.7285,14620.0
1698675215372.2217,14622.0
1698675215392.7148,14623.0
1698675215413.2085,14628.0
1698675215433.7017,14628.0
1698675215454.195,14625.0
1698675215474.6885,14636.0
1698675215495.182,14635.0
1698675215515.6753,14643.0
1698675215536.1685,14644.0
1698675215556.662,14640.0
1698675215577.1553,14638.0
1698675215597.6487,14636.0
1698675215618.142,14627.0
1698675215638.6355,14622.0
1698675215659.129,14612.0
1698675215679.622,14608.0
1698675215700.1155,14604.0
1698675215720.609,14599.0
1698675215741.1023,14599.0
1698675215761.5957,14603.0
1698675215782.089,14603.0
1698675215802.5825,14566.0
1698675215823.0757,14613.0
1698675215843.569,14618.0
1698675215864.0625,14620.0
1698675215884.556,14588.0
1698675215905.0493,14636.0
1698675215925.5427,14643.0
1698675215946.036,14649.0
1698675215966.5293,14658.0
1698675215987.0227,14669.0
1698675216007.516,14671.0
1698675216028.0095,14682.0
1698675216048.503,14683.0
1698675216068.996,14674.0
1698675216089.4895,14675.0
1698675216109.983,14674.0
1698675216130.4763,14672.0
1698675216150.9695,14664.0
1698675216171.4631,14668.0
1698675216191.9563,14664.0
1698675216212.4497,14623.0
1698675216232.943,14662.0
1698675216253.4363,14657.0
1698675216273.93,14652.0
1698675216294.423,14637.0
1698675216314.9167,14586.0
1698675216335.4102,14617.0
1698675216355.9033,14604.0
1698675216376.3967,14592.0
1698675216396.89,14584.0
1698675216417.3835,14575.0
1698675216437.877,14576.0
1698675216458.3704,14570.0
1698675216478.8635,14567.0
1698675216499.357,14568.0
1698675216519.8503,14568.0
1698675216540.3438,14571.0
1698675216560.8372,14570.0
1698675216581.3306,14574.0
1698675216601.824,14578.0
1698675216622.3171,14579.0
1698675216642.8103,14580.0
1698675216663.304,14582.0
1698675216683.7974,14585.0
1698675216704.2908,14586.0
1698675216724.7842,14591.0
1698675216745.277,14582.0
1698675216765.7708,14592.0
1698675216786.2642,14598.0
1698675216806.7576,14599.0
1698675216827.251,14600.0
1698675216847.7444,14602.0
1698675216868.2378,14603.0
1698675216888.731,14609.0
1698675216909.2244,14605.0
1698675216929.7178,14615.0
1698675216950.2112,14606.0
1698675216970.7046,14605.0
1698675216991.198,14597.0
1698675217011.6914,14545.0
1698675217032.1846,14579.0
1698675217052.678,14566.0
1698675217073.1714,14559.0
1698675217093.6648,14514.0
1698675217114.1582,14552.0
1698675217134.6516,14549.0
1698675217155.1448,14547.0
1698675217175.6382,14553.0
1698675217196.1316,14557.0
1698675217216.625,14557.0
1698675217237.1184,14558.0
1698675217257.6118,14563.0
1698675217278.1052,14522.0
1698675217298.5984,14567.0
1698675217319.0918,14570.0
1698675217339.5852,14572.0
1698675217360.0786,14574.0
1698675217380.572,14575.0
1698675217401.0654,14580.0
1698675217421.5586,14588.0
1698675217442.052,14583.0
1698675217462.5454,14592.0
1698675217483.0388,14599.0
1698675217503.5322,14602.0
1698675217524.0256,14608.0
1698675217544.519,14612.0
1698675217565.0122,14571.0
1698675217585.5056,14618.0
1698675217605.999,14618.0
1698675217626.4924,14616.0
1698675217646.9858,14614.0
1698675217667.4792,14607.0
1698675217687.973,14598.0
1698675217708.4658,14591.0
1698675217728.9592,14583.0
1698675217749.4526,14574.0
1698675217769.946,14565.0
1698675217790.4397,14561.0
1698675217810.9329,14556.0
1698675217831.426,14557.0
1698675217851.9194,14551.0
1698675217872.4128,14554.0
1698675217892.9062,14560.0
1698675217913.3997,14557.0
1698675217933.893,14559.0
1698675217954.3865,14562.0
1698675217974.8796,14562.0
1698675217995.373,14570.0
1698675218015.8665,14561.0
1698675218036.36,14570.0
1698675218056.8533,14571.0
1698675218077.3467,14574.0
1698675218097.8398,14580.0
1698675218118.3333,14579.0
1698675218138.827,14586.0
1698675218159.32,14549.0
1698675218179.8137,14592.0
1698675218200.307,14594.0
1698675218220.8003,14604.0
1698675218241.2937,14602.0
1698675218261.7869,14615.0
1698675218282.2805,14615.0
1698675218302.7737,14619.0
1698675218323.267,14625.0
1698675218343.7605,14629.0
1698675218364.254,14633.0
1698675218384.747,14600.0
1698675218405.2405,14640.0
1698675218425.734,14640.0
1698675218446.2273,14638.0
1698675218466.7207,14626.0
1698675218487.214,14618.0
1698675218507.7073,14605.0
1698675218528.2007,14598.0
1698675218548.694,14596.0
1698675218569.1875,14588.0
1698675218589.681,14584.0
1698675218610.1743,14589.0
1698675218630.6675,14595.0
1698675218651.161,14603.0
1698675218671.6543,14605.0
1698675218692.1477,14600.0
1698675218712.641,14595.0
1698675218733.1345,14586.0
1698675218753.628,14574.0
1698675218774.121,14558.0
1698675218794.6145,14545.0
1698675218815.108,14532.0
1698675218835.6013,14521.0
1698675218856.0947,14514.0
1698675218876.588,14508.0
1698675218897.0815,14494.0
1698675218917.5747,14483.0
1698675218938.068,14467.0
1698675218958.5615,14464.0
1698675218979.055,14465.0
1698675218999.5483,14482.0
1698675219020.0415,14499.0
1698675219040.5352,14539.0
1698675219061.0283,14581.0
1698675219081.5215,14629.0
1698675219102.0151,14674.0
1698675219122.5083,14672.0
1698675219143.002,14741.0
1698675219163.4954,14749.0
1698675219183.9883,14752.0
1698675219204.482,14758.0
1698675219224.975,14753.0
1698675219245.4688,14756.0
1698675219265.9622,14756.0
1698675219286.4556,14755.0
1698675219306.949,14758.0
1698675219327.442,14755.0
1698675219347.9355,14756.0
1698675219368.429,14756.0
1698675219388.9224,14754.0
1698675219409.4158,14715.0
1698675219429.9092,14757.0
1698675219450.4023,14756.0
1698675219470.8958,14722.0
1698675219491.3892,14770.0
1698675219511.8826,14763.0
1698675219532.376,14769.0
1698675219552.8694,14771.0
1698675219573.3628,14774.0
1698675219593.856,14774.0
1698675219614.3494,14783.0
1698675219634.8428,14778.0
1698675219655.3362,14795.0
1698675219675.8296,14750.0
1698675219696.323,14797.0
1698675219716.8164,14800.0
1698675219737.3096,14806.0
1698675219757.803,14808.0
1698675219778.2964,14811.0
1698675219798.7898,14817.0
1698675219819.2832,14823.0
1698675219839.7766,14828.0
1698675219860.2698,14822.0
1698675219880.7632,14820.0
1698675219901.2566,14812.0
1698675219921.75,14803.0
1698675219942.2434,14796.0
1698675219962.7368,14788.0
1698675219983.2302,14775.0
1698675220003.7234,14775.0
1698675220024.2168,14756.0
1698675220044.7102,14759.0
1698675220065.2036,14754.0
1698675220085.697,14753.0
1698675220106.1904,14759.0
1698675220126.6836,14755.0
1698675220147.177,14756.0
1698675220167.6704,14754.0
1698675220188.1638,14756.0
1698675220208.6572,14758.0
1698675220229.1506,14759.0
1698675220249.644,14765.0
1698675220270.1372,14761.0
1698675220290.6306,14766.0
1698675220311.124,14769.0
1698675220331.6174,14774.0
1698675220352.1108,14774.0
1698675220372.6042,14778.0
1698675220393.0977,14783.0
1698675220413.5908,14781.0
1698675220434.0842,14786.0
1698675220454.5776,14791.0
1698675220475.071,14796.0
1698675220495.5645,14800.0
1698675220516.058,14803.0
1698675220536.551,14807.0
1698675220557.0444,14805.0
1698675220577.5378,14809.0
1698675220598.0312,14797.0
1698675220618.525,14794.0
1698675220639.018,14787.0
1698675220659.5117,14777.0
1698675220680.0046,14768.0
1698675220700.498,14761.0
1698675220720.9917,14754.0
1698675220741.4849,14757.0
1698675220761.9785,14700.0
1698675220782.4717,14739.0
1698675220802.9648,14738.0
1698675220823.4585,14695.0
1698675220843.9517,14733.0
1698675220864.445,14730.0
1698675220884.9385,14725.0
1698675220905.432,14724.0
1698675220925.9253,14675.0
1698675220946.4185,14720.0
1698675220966.912,14715.0
1698675220987.4053,14674.0
1698675221007.8987,14715.0
1698675221028.392,14715.0
1698675221048.8855,14715.0
1698675221069.379,14717.0
1698675221089.872,14715.0
1698675221110.3655,14721.0
1698675221130.859,14677.0
1698675221151.3523,14722.0
1698675221171.8457,14720.0
1698675221192.339,14724.0
1698675221212.8325,14727.0
1698675221233.3257,14732.0
1698675221253.819,14735.0
1698675221274.3125,14736.0
1698675221294.806,14694.0
1698675221315.2993,14727.0
1698675221335.7927,14721.0
1698675221356.286,14675.0
1698675221376.7793,14715.0
1698675221397.2727,14707.0
1698675221417.766,14701.0
1698675221438.2595,14695.0
1698675221458.753,14691.0
1698675221479.246,14693.0
1698675221499.7395,14684.0
1698675221520.233,14685.0
1698675221540.7263,14689.0
1698675221561.2195,14687.0
1698675221581.7131,14689.0
1698675221602.2063,14695.0
1698675221622.6997,14695.0
1698675221643.193,14701.0
1698675221663.6863,14701.0
1698675221684.18,14702.0
1698675221704.673,14703.0
1698675221725.1667,14708.0
1698675221745.6602,14666.0
1698675221766.1533,14668.0
1698675221786.6467,14716.0
1698675221807.14,14720.0
1698675221827.6335,14723.0
1698675221848.127,14731.0
1698675221868.6204,14732.0
1698675221889.1135,14733.0
1698675221909.607,14696.0
1698675221930.1003,14747.0
1698675221950.5938,14750.0
1698675221971.0872,14756.0
1698675221991.5806,14753.0
1698675222012.074,14751.0
1698675222032.5671,14748.0
1698675222053.0603,14740.0
1698675222073.554,14733.0
1698675222094.0474,14681.0
1698675222114.5408,14669.0
1698675222135.0342,14710.0
1698675222155.527,14703.0
1698675222176.0208,14701.0
1698675222196.5142,14699.0
1698675222217.0076,14697.0
1698675222237.501,14695.0
1698675222257.9944,14692.0
1698675222278.4878,14695.0
1698675222298.981,14698.0
1698675222319.4744,14701.0
1698675222339.9678,14702.0
1698675222360.4612,14697.0
1698675222380.9546,14658.0
1698675222401.448,14701.0
1698675222421.9414,14702.0
1698675222442.4346,14709.0
1698675222462.928,14708.0
1698675222483.4214,14713.0
1698675222503.9148,14718.0
1698675222524.4082,14680.0
1698675222544.9016,14682.0
1698675222565.3948,14724.0
1698675222585.8882,14729.0
1698675222606.3816,14687.0
1698675222626.875,14738.0
1698675222647.3684,14744.0
1698675222667.8618,14746.0
1698675222688.3552,14754.0
1698675222708.8484,14755.0
1698675222729.3418,14749.0
1698675222749.8352,14754.0
1698675222770.3286,14749.0
1698675222790.822,14737.0
1698675222811.3154,14733.0
1698675222831.8086,14725.0
1698675222852.302,14719.0
1698675222872.7954,14714.0
1698675222893.2888,14706.0
1698675222913.7822,14705.0
1698675222934.2756,14706.0
1698675222954.769,14697.0
1698675222975.2622,14699.0
1698675222995.7556,14699.0
1698675223016.249,14661.0
1698675223036.7424,14699.0
1698675223057.2358,14656.0
1698675223077.7292,14705.0
1698675223098.223,14701.0
1698675223118.7158,14712.0
1698675223139.2092,14716.0
1698675223159.7026,14713.0
1698675223180.196,14672.0
1698675223200.6897,14718.0
1698675223221.1829,14682.0
1698675223241.676,14722.0
1698675223262.1694,14731.0
1698675223282.6628,14730.0
1698675223303.1562,14738.0
1698675223323.6497,14741.0
1698675223344.143,14745.0
1698675223364.6365,14749.0
1698675223385.1296,14749.0
1698675223405.623,14712.0
1698675223426.1165,14761.0
1698675223446.61,14763.0
1698675223467.1033,14768.0
1698675223487.5967,14768.0
1698675223508.0898,14759.0
1698675223528.5833,14752.0
1698675223549.077,14744.0
1698675223569.57,14737.0
1698675223590.0637,14729.0
1698675223610.557,14681.0
1698675223631.0503,14717.0
1698675223651.5437,14675.0
1698675223672.0369,14714.0
1698675223692.5305,14712.0
1698675223713.0237,14707.0
1698675223733.517,14712.0
1698675223754.0105,14707.0
1698675223774.504,14711.0
1698675223794.997,14709.0
1698675223815.4905,14710.0
1698675223835.984,14708.0
1698675223856.4773,14707.0
1698675223876.9707,14718.0
1698675223897.464,14717.0
1698675223917.9573,14721.0
1698675223938.4507,14719.0
1698675223958.944,14686.0
1698675223979.4375,14726.0
1698675223999.931,14733.0
1698675224020.4243,14735.0
1698675224040.9175,14696.0
1698675224061.411,14740.0
1698675224081.9043,14750.0
1698675224102.3977,14749.0
1698675224122.891,14751.0
1698675224143.3845,14755.0
1698675224163.878,14754.0
1698675224184.371,14720.0
1698675224204.8645,14759.0
1698675224225.358,14714.0
1698675224245.8513,14749.0
1698675224266.3447,14746.0
1698675224286.838,14696.0
1698675224307.3315,14733.0
1698675224327.8247,14724.0
1698675224348.318,14718.0
1698675224368.8115,14715.0
1698675224389.305,14715.0
1698675224409.7983,14709.0
1698675224430.2915,14717.0
1698675224450.7852,14713.0
1698675224471.2783,14710.0
1698675224491.7715,14711.0
1698675224512.2651,14668.0
1698675224532.7583,14714.0
1698675224553.252,14714.0
1698675224573.7454,14669.0
1698675224594.2383,14713.0
1698675224614.732,14720.0
1698675224635.225,14722.0
1698675224655.7188,14724.0
1698675224676.2122,14727.0
1698675224696.7056,14729.0
1698675224717.199,14729.0
1698675224737.692,14734.0
1698675224758.1855,14742.0
1698675224778.679,14738.0
1698675224799.1724,14743.0
1698675224819.6658,14750.0
1698675224840.1592,14755.0
1698675224860.6523,14714.0
1698675224881.1458,14763.0
1698675224901.6392,14766.0
1698675224922.1326,14771.0
1698675224942.626,14773.0
1698675224963.1194,14769.0
1698675224983.6128,14758.0
1698675225004.106,14752.0
1698675225024.5994,14742.0
1698675225045.0928,14740.0
1698675225065.5862,14735.0
1698675225086.0796,14730.0
1698675225106.573,14726.0
1698675225127.0664,14728.0
1698675225147.5596,14726.0
1698675225168.053,14723.0
1698675225188.5464,14722.0
1698675225209.0398,14724.0
1698675225229.5332,14726.0
1698675225250.0266,14723.0
1698675225270.5198,14736.0
1698675225291.0132,14732.0
1698675225311.5066,14736.0
1698675225352.39,14735.0
1698675225372.7795,14738.0
1698675225393.1694,14736.0
1698675225413.559,14735.0
1698675225433.949,14745.0
1698675225454.3386,14750.0
1698675225474.7285,14746.0
1698675225495.1182,14754.0
1698675225515.508,14754.0
1698675225535.8977,14762.0
1698675225556.2876,14764.0
1698675225576.6772,14765.0
1698675225597.0671,14773.0
1698675225617.4568,14774.0
1698675225637.8467,14781.0
1698675225658.2363,14785.0
1698675225678.6262,14783.0
1698675225699.016,14772.0
1698675225719.4058,14771.0
1698675225739.7954,14770.0
1698675225760.1853,14720.0
1698675225780.575,14759.0
1698675225800.9648,14750.0
1698675225821.3545,14744.0
1698675225841.7444,14739.0
1698675225862.134,14740.0
1698675225882.524,14740.0
1698675225902.9136,14744.0
1698675225923.3037,14740.0
1698675225943.693,14746.0
1698675225964.083,14748.0
1698675225984.473,14755.0
1698675226004.8623,14761.0
1698675226025.2522,14760.0
1698675226045.642,14737.0
1698675226066.0315,14735.0
1698675226086.4216,14724.0
1698675226106.8113,14729.0
1698675226127.2012,14721.0
1698675226147.5908,14726.0
1698675226167.9807,14713.0
1698675226188.3704,14699.0
1698675226208.7605,14697.0
1698675226229.15,14688.0
1698675226249.5398,14683.0
1698675226269.9294,14682.0
1698675226290.319,14674.0
1698675226310.709,14668.0
1698675226331.0989,14668.0
1698675226351.4883,14660.0
1698675226371.8784,14657.0
1698675226392.268,14645.0
1698675226412.658,14627.0
1698675226433.0476,14614.0
1698675226453.4375,14600.0
1698675226473.8274,14585.0
1698675226494.217,14575.0
1698675226514.607,14555.0
1698675226534.9966,14542.0
1698675226555.3865,14518.0
1698675226575.776,14507.0
1698675226596.166,14489.0
1698675226616.5557,14468.0
1698675226636.9456,14460.0
1698675226657.3352,14488.0
1698675226677.725,14501.0
1698675226698.1147,14500.0
1698675226718.5046,14462.0
1698675226738.8943,14509.0
1698675226759.2842,14477.0
1698675226779.6738,14524.0
1698675226800.0637,14531.0
1698675226820.4534,14539.0
1698675226840.8433,14558.0
1698675226861.233,14573.0
1698675226881.6228,14594.0
1698675226902.0125,14619.0
1698675226922.4023,14613.0
1698675226942.792,14593.0
1698675226963.182,14576.0
1698675226983.5715,14516.0
1698675227003.9614,14537.0
1698675227024.351,14528.0
1698675227044.741,14529.0
1698675227065.1306,14523.0
1698675227085.5205,14525.0
1698675227105.9102,14471.0
1698675227126.3,14503.0
1698675227146.6897,14444.0
1698675227167.0796,14471.0
1698675227187.4692,14418.0
1698675227207.8591,14444.0
1698675227228.2488,14428.0
1698675227248.639,14417.0
1698675227269.0283,14402.0
1698675227289.4182,14394.0
1698675227309.808,14381.0
1698675227330.1978,14336.0
1698675227350.5874,14371.0
1698675227370.9773,14358.0
1698675227391.367,14351.0
1698675227411.7568,14340.0
1698675227432.1465,14337.0
1698675227452.5364,14326.0
1698675227472.926,14321.0
1698675227493.316,14314.0
1698675227513.7056,14301.0
1698675227534.0957,14301.0
1698675227554.485,14289.0
1698675227574.875,14288.0
1698675227595.265,14282.0
1698675227615.6543,14234.0
1698675227636.0444,14272.0
1698675227656.434,14266.0
1698675227676.824,14260.0
1698675227697.2136,14252.0
1698675227717.6035,14243.0
1698675227737.9932,14237.0
1698675227758.383,14231.0
1698675227778.7727,14230.0
1698675227799.1626,14228.0
1698675227819.5522,14223.0
1698675227839.942,14210.0
1698675227860.3318,14192.0
1698675227880.7217,14174.0
1698675227901.111,14156.0
1698675227921.5012,14142.0
1698675227941.8909,14122.0
1698675227962.2808,14115.0
1698675227982.6704,14093.0
1698675228003.0603,14082.0
1698675228023.45,14074.0
1698675228043.8398,14056.0
1698675228064.2295,14050.0
1698675228084.6194,14038.0
1698675228105.009,14030.0
1698675228125.399,14023.0
1698675228145.7886,14017.0
1698675228166.1785,14008.0
1698675228186.568,14004.0
1698675228206.958,13999.0
1698675228227.3477,13994.0
1698675228247.7375,13996.0
1698675228268.1272,13987.0
1698675228288.517,13984.0
1698675228308.9067,13983.0
1698675228329.2966,13982.0
1698675228349.6863,13963.0
1698675228370.0762,13974.0
1698675228390.4658,13966.0
1698675228410.8557,13965.0
1698675228431.2454,13925.0
1698675228451.6353,13956.0
1698675228472.025,13958.0
1698675228492.4148,13960.0
1698675228512.8044,13959.0
1698675228533.1943,13947.0
1698675228553.584,13948.0
1698675228573.974,13946.0
1698675228594.3635,13900.0
1698675228614.7534,13931.0
1698675228635.143,13920.0
1698675228655.533,13866.0
1698675228675.9226,13901.0
1698675228696.3125,13886.0
1698675228716.7024,13875.0
1698675228737.092,13868.0
1698675228757.482,13858.0
1698675228777.8716,13852.0
1698675228798.2617,13839.0
1698675228818.6511,13825.0
1698675228839.041,13821.0
1698675228859.431,13820.0
1698675228879.8206,13819.0
1698675228900.2102,13826.0
1698675228920.6,13785.0
1698675228940.9895,13854.0
1698675228961.3796,13888.0
1698675228981.7693,13937.0
1698675229002.1592,13976.0
1698675229022.5488,13994.0
1698675229042.9387,14002.0
1698675229063.3284,14029.0
1698675229083.7185,14048.0
1698675229104.108,14079.0
1698675229124.4978,14104.0
1698675229144.8877,14127.0
1698675229165.277,14141.0
1698675229185.667,14151.0
1698675229206.057,14165.0
1698675229226.4463,14172.0
1698675229246.8364,14188.0
1698675229267.226,14188.0
1698675229287.616,14178.0
1698675229308.0056,14158.0
1698675229328.3955,14156.0
1698675229348.7852,14138.0
1698675229369.175,14126.0
1698675229389.5647,14114.0
1698675229409.9546,14100.0
1698675229430.3442,14099.0
1698675229450.734,14110.0
1698675229471.1238,14116.0
1698675229491.5137,14117.0
1698675229511.9033,14108.0
1698675229532.2932,14052.0
1698675229552.6829,14085.0
1698675229573.0728,14093.0
1698675229593.4624,14100.0
1698675229613.8523,14102.0
1698675229634.242,14088.0
1698675229654.6318,14074.0
1698675229675.0215,14058.0
1698675229695.4114,14061.0
1698675229715.801,14061.0
1698675229736.191,14058.0
1698675229756.5806,14054.0
1698675229776.9705,14063.0
1698675229797.36,14067.0
1698675229817.75,14073.0
1698675229838.14,14083.0
1698675229858.5295,14095.0
1698675229878.9194,14094.0
1698675229899.309,14099.0
1698675229919.699,14107.0
1698675229940.0886,14113.0
1698675229960.4785,14120.0
1698675229980.8682,14078.0
