ts,ppg
1698924288015.8384,12760.0
1698924288036.5046,12795.0
1698924288057.171,12794.0
1698924288077.8372,12747.0
1698924288098.5034,12782.0
1698924288119.1697,12785.0
1698924288139.836,12782.0
1698924288160.5022,12777.0
1698924288181.1685,12775.0
1698924288201.835,12770.0
1698924288222.5012,12768.0
1698924288243.1675,12769.0
1698924288263.8335,12760.0
1698924288284.5,12766.0
1698924288305.1665,12762.0
1698924288325.8325,12755.0
1698924288346.4988,12754.0
1698924288367.165,12753.0
1698924288387.8315,12746.0
1698924288408.4978,12744.0
1698924288429.164,12739.0
1698924288449.8303,12733.0
1698924288470.4966,12728.0
1698924288491.1628,12732.0
1698924288511.829,12731.0
1698924288532.4954,12728.0
1698924288553.1616,12692.0
1698924288573.828,12732.0
1698924288594.4944,12732.0
1698924288615.1606,12726.0
1698924288635.827,12727.0
1698924288656.4932,12724.0
1698924288677.1594,12715.0
1698924288697.8257,12718.0
1698924288718.492,12666.0
1698924288739.1584,12707.0
1698924288759.8247,12701.0
1698924288780.491,12698.0
1698924288801.1572,12695.0
1698924288821.8235,12686.0
1698924288842.4895,12685.0
1698924288863.156,12683.0
1698924288883.8225,12681.0
1698924288904.4883,12680.0
1698924288925.155,12680.0
1698924288945.8213,12676.0
1698924288966.4875,12671.0
1698924288987.1538,12674.0
1698924289007.82,12670.0
1698924289028.4863,12664.0
1698924289049.1526,12666.0
1698924289069.8188,12663.0
1698924289090.485,12661.0
1698924289111.1516,12664.0
1698924289131.818,12661.0
1698924289152.484,12658.0
1698924289173.1504,12656.0
1698924289193.817,12659.0
1698924289214.483,12660.0
1698924289235.1492,12658.0
1698924289255.8154,12658.0
1698924289276.482,12650.0
1698924289297.1482,12649.0
1698924289317.8145,12652.0
1698924289338.4807,12640.0
1698924289359.147,12635.0
1698924289379.8132,12633.0
1698924289400.4795,12626.0
1698924289421.1458,12620.0
1698924289441.812,12615.0
1698924289462.4785,12613.0
1698924289483.1448,12607.0
1698924289503.811,12603.0
1698924289524.4773,12606.0
1698924289545.1436,12603.0
1698924289565.8098,12601.0
1698924289586.476,12596.0
1698924289607.1423,12589.0
1698924289627.8086,12590.0
1698924289648.475,12590.0
1698924289669.1414,12585.0
1698924289689.8076,12584.0
1698924289710.474,12585.0
1698924289731.14,12581.0
1698924289751.8064,12542.0
1698924289772.473,12577.0
1698924289793.139,12573.0
1698924289813.8054,12581.0
1698924289834.4717,12577.0
1698924289855.138,12574.0
1698924289875.8042,12573.0
1698924289896.4705,12568.0
1698924289917.1367,12578.0
1698924289937.803,12574.0
1698924289958.4692,12580.0
1698924289979.1355,12573.0
1698924289999.802,12575.0
1698924290020.4685,12573.0
1698924290041.1345,12572.0
1698924290061.8008,12577.0
1698924290082.467,12579.0
1698924290103.1333,12587.0
1698924290123.7996,12580.0
1698924290144.4658,12583.0
1698924290165.132,12582.0
1698924290185.7986,12575.0
1698924290206.4648,12566.0
1698924290227.131,12560.0
1698924290247.7974,12549.0
1698924290268.4636,12536.0
1698924290289.13,12522.0
1698924290309.796,12514.0
1698924290330.4624,12513.0
1698924290351.129,12519.0
1698924290371.7952,12516.0
1698924290392.4614,12515.0
1698924290413.1277,12503.0
1698924290433.794,12493.0
1698924290454.4602,12480.0
1698924290475.1265,12469.0
1698924290495.7927,12465.0
1698924290516.459,12464.0
1698924290537.1255,12457.0
1698924290557.7915,12453.0
1698924290578.458,12454.0
1698924290599.1245,12445.0
1698924290619.7903,12442.0
1698924290640.4568,12440.0
1698924290661.123,12425.0
1698924290681.7893,12424.0
1698924290702.4556,12410.0
1698924290723.122,12405.0
1698924290743.7883,12403.0
1698924290764.4546,12357.0
1698924290785.1208,12382.0
1698924290805.787,12376.0
1698924290826.4534,12368.0
1698924290847.1196,12363.0
1698924290867.786,12358.0
1698924290888.4524,12347.0
1698924290909.119,12340.0
1698924290929.785,12336.0
1698924290950.4512,12333.0
1698924290971.1174,12328.0
1698924290991.7837,12330.0
1698924291012.45,12326.0
1698924291033.1162,12327.0
1698924291053.7825,12329.0
1698924291074.449,12333.0
1698924291095.1152,12334.0
1698924291115.7815,12342.0
1698924291136.4478,12341.0
1698924291157.114,12345.0
1698924291177.7805,12349.0
1698924291198.4463,12350.0
1698924291219.1128,12355.0
1698924291239.779,12359.0
1698924291260.4456,12359.0
1698924291281.1118,12358.0
1698924291301.778,12344.0
1698924291322.4443,12333.0
1698924291343.1106,12320.0
1698924291363.7769,12310.0
1698924291384.443,12303.0
1698924291405.1094,12291.0
1698924291425.776,12282.0
1698924291446.442,12279.0
1698924291467.1084,12273.0
1698924291487.775,12260.0
1698924291508.441,12259.0
1698924291529.1072,12256.0
1698924291549.7734,12248.0
1698924291570.4397,12241.0
1698924291591.106,12238.0
1698924291611.7725,12226.0
1698924291632.4387,12227.0
1698924291653.105,12222.0
1698924291673.7712,12216.0
1698924291694.4375,12221.0
1698924291715.1038,12223.0
1698924291735.77,12230.0
1698924291756.4363,12234.0
1698924291777.1023,12243.0
1698924291797.769,12239.0
1698924291818.4353,12246.0
1698924291839.1016,12244.0
1698924291859.7678,12248.0
1698924291880.434,12251.0
1698924291901.1003,12252.0
1698924291921.7666,12252.0
1698924291942.4329,12244.0
1698924291963.099,12244.0
1698924291983.7656,12242.0
1698924292004.432,12202.0
1698924292025.098,12231.0
1698924292045.7644,12234.0
1698924292066.431,12234.0
1698924292087.097,12224.0
1698924292107.7632,12222.0
1698924292128.4294,12224.0
1698924292149.096,12221.0
1698924292169.7622,12219.0
1698924292190.4285,12222.0
1698924292211.0947,12219.0
1698924292231.761,12217.0
1698924292252.4272,12212.0
1698924292273.0935,12203.0
1698924292293.7598,12208.0
1698924292314.426,12214.0
1698924292335.0923,12210.0
1698924292355.7588,12209.0
1698924292376.425,12206.0
1698924292397.0913,12205.0
1698924292417.7576,12209.0
1698924292438.4238,12211.0
1698924292459.09,12206.0
1698924292479.7563,12207.0
1698924292500.4226,12208.0
1698924292521.089,12213.0
1698924292541.7554,12208.0
1698924292562.4216,12207.0
1698924292583.088,12205.0
1698924292603.7542,12196.0
1698924292624.4204,12182.0
1698924292645.087,12176.0
1698924292665.753,12159.0
1698924292686.4194,12147.0
1698924292707.0857,12135.0
1698924292727.752,12120.0
1698924292748.4182,12127.0
1698924292769.0845,12113.0
1698924292789.7507,12114.0
1698924292810.417,12107.0
1698924292831.0833,12108.0
1698924292851.7495,12102.0
1698924292872.416,12094.0
1698924292893.0825,12074.0
1698924292913.7483,12069.0
1698924292934.4148,12056.0
1698924292955.081,12052.0
1698924292975.7473,12042.0
1698924292996.4136,12033.0
1698924293017.0798,12027.0
1698924293037.746,12021.0
1698924293058.4126,12010.0
1698924293079.0789,12005.0
1698924293099.745,12003.0
1698924293120.4114,11996.0
1698924293141.0776,11988.0
1698924293161.744,11990.0
1698924293182.4102,11981.0
1698924293203.0764,11982.0
1698924293223.743,11975.0
1698924293244.4092,11975.0
1698924293265.0754,11974.0
1698924293285.7417,11974.0
1698924293306.408,11972.0
1698924293327.0742,11969.0
1698924293347.7405,11973.0
1698924293368.4067,11974.0
1698924293389.073,11982.0
1698924293409.7395,11991.0
1698924293430.4058,11993.0
1698924293451.072,11998.0
1698924293471.7383,11997.0
1698924293492.4043,11998.0
1698924293513.0708,12013.0
1698924293533.737,12021.0
1698924293554.4033,12033.0
1698924293575.0696,12035.0
1698924293595.736,12036.0
1698924293616.4023,12037.0
1698924293637.0686,12032.0
1698924293657.7349,12033.0
1698924293678.4011,11988.0
1698924293699.0674,12018.0
1698924293719.7336,12017.0
1698924293740.4,12014.0
1698924293761.0664,12008.0
1698924293781.733,12009.0
1698924293802.399,11997.0
1698924293823.0652,11992.0
1698924293843.7314,11991.0
1698924293864.3977,11984.0
1698924293885.064,11979.0
1698924293905.7302,11961.0
1698924293926.3965,11948.0
1698924293947.063,11942.0
1698924293967.7292,11932.0
1698924293988.3955,11926.0
1698924294009.0618,11915.0
1698924294029.728,11907.0
1698924294050.3943,11892.0
1698924294071.0603,11892.0
1698924294091.7268,11889.0
1698924294112.393,11875.0
1698924294133.0596,11874.0
1698924294153.7258,11874.0
1698924294174.392,11867.0
1698924294195.0583,11876.0
1698924294215.7246,11895.0
1698924294236.3909,11912.0
1698924294257.0571,11930.0
1698924294277.7234,11945.0
1698924294298.39,11961.0
1698924294319.0562,11971.0
1698924294339.7224,11994.0
1698924294360.389,12015.0
1698924294381.055,12040.0
1698924294401.7212,12072.0
1698924294422.3877,12125.0
1698924294443.0537,12168.0
1698924294463.72,12204.0
1698924294484.3865,12219.0
1698924294505.0527,12226.0
1698924294525.719,12212.0
1698924294546.3853,12189.0
1698924294567.0515,12164.0
1698924294587.7178,12141.0
1698924294608.384,12123.0
1698924294629.0503,12105.0
1698924294649.7166,12096.0
1698924294670.383,12086.0
1698924294691.0493,12077.0
1698924294711.7156,12065.0
1698924294732.3818,12064.0
1698924294753.048,12056.0
1698924294773.7144,12059.0
1698924294794.3806,12064.0
1698924294815.0469,12067.0
1698924294835.7134,12074.0
1698924294856.3796,12071.0
1698924294877.046,12082.0
1698924294897.7122,12091.0
1698924294918.3784,12100.0
1698924294939.045,12105.0
1698924294959.711,12116.0
1698924294980.3772,12124.0
1698924295001.0437,12131.0
1698924295021.71,12135.0
1698924295042.3762,12132.0
1698924295063.0425,12127.0
1698924295083.7087,12128.0
1698924295104.375,12128.0
1698924295125.0413,12131.0
1698924295145.7075,12132.0
1698924295166.3738,12128.0
1698924295187.04,12123.0
1698924295207.7063,12123.0
1698924295228.3728,12124.0
1698924295249.039,12114.0
1698924295269.705,12109.0
1698924295290.3716,12105.0
1698924295311.0378,12105.0
1698924295331.704,12103.0
1698924295352.3704,12099.0
1698924295373.0366,12102.0
1698924295393.7031,12106.0
1698924295414.3694,12111.0
1698924295435.0356,12121.0
1698924295455.702,12123.0
1698924295476.3682,12120.0
1698924295497.0344,12125.0
1698924295517.7007,12130.0
1698924295538.367,12133.0
1698924295559.0334,12144.0
1698924295579.6997,12144.0
1698924295600.366,12146.0
1698924295621.0322,12144.0
1698924295641.6985,12150.0
1698924295662.3647,12157.0
1698924295683.031,12155.0
1698924295703.6973,12158.0
1698924295724.3635,12159.0
1698924295745.03,12162.0
1698924295765.6963,12158.0
1698924295786.3623,12165.0
1698924295807.0288,12159.0
1698924295827.695,12155.0
1698924295848.361,12153.0
1698924295869.0276,12150.0
1698924295889.6938,12138.0
1698924295910.36,12134.0
1698924295931.0266,12129.0
1698924295951.6929,12122.0
1698924295972.3591,12120.0
1698924295993.0254,12121.0
1698924296013.6917,12131.0
1698924296034.358,12137.0
1698924296055.0242,12133.0
1698924296075.6904,12139.0
1698924296096.357,12143.0
1698924296117.0232,12145.0
1698924296137.6897,12143.0
1698924296158.3557,12141.0
1698924296179.022,12145.0
1698924296199.6882,12146.0
1698924296220.3545,12142.0
1698924296241.0208,12136.0
1698924296261.687,12139.0
1698924296282.3535,12138.0
1698924296303.0198,12144.0
1698924296323.686,12145.0
1698924296344.3523,12144.0
1698924296365.0186,12147.0
1698924296385.6848,12145.0
1698924296406.351,12144.0
1698924296427.017,12143.0
1698924296447.6836,12139.0
1698924296468.35,12132.0
1698924296489.0164,12126.0
1698924296509.6826,12126.0
1698924296530.3489,12125.0
1698924296551.0151,12120.0
1698924296571.6814,12117.0
1698924296592.3477,12123.0
1698924296613.014,12116.0
1698924296633.6804,12113.0
1698924296654.3467,12111.0
1698924296675.013,12116.0
1698924296695.6792,12113.0
1698924296716.3457,12112.0
1698924296737.0117,12115.0
1698924296757.678,12122.0
1698924296778.3442,12129.0
1698924296799.0105,12131.0
1698924296819.677,12141.0
1698924296840.3433,12151.0
1698924296861.0095,12161.0
1698924296881.6758,12166.0
1698924296902.342,12171.0
1698924296923.0083,12179.0
1698924296943.6746,12187.0
1698924296964.3408,12204.0
1698924296985.007,12205.0
1698924297005.6736,12208.0
1698924297026.3398,12201.0
1698924297047.006,12202.0
1698924297067.6724,12196.0
1698924297088.3386,12193.0
1698924297109.005,12187.0
1698924297129.6711,12187.0
1698924297150.3374,12188.0
1698924297171.004,12184.0
1698924297191.6702,12179.0
1698924297212.3364,12178.0
1698924297233.0027,12179.0
1698924297253.669,12178.0
1698924297274.3352,12176.0
1698924297295.0017,12182.0
1698924297315.6675,12188.0
1698924297336.334,12188.0
1698924297357.0005,12190.0
1698924297377.6667,12191.0
1698924297398.333,12197.0
1698924297418.9993,12198.0
1698924297439.6655,12199.0
1698924297460.3318,12202.0
1698924297480.998,12201.0
1698924297501.6643,12206.0
1698924297522.3306,12212.0
1698924297542.997,12215.0
1698924297563.663,12215.0
1698924297584.3296,12203.0
1698924297604.9958,12196.0
1698924297625.662,12189.0
1698924297646.3284,12187.0
1698924297666.9946,12187.0
1698924297687.661,12191.0
1698924297708.3274,12201.0
1698924297728.9937,12203.0
1698924297749.66,12170.0
1698924297770.3262,12207.0
1698924297790.9924,12210.0
1698924297811.6587,12210.0
1698924297832.325,12206.0
1698924297852.9912,12206.0
1698924297873.6577,12204.0
1698924297894.324,12208.0
1698924297914.9902,12205.0
1698924297935.6565,12210.0
1698924297956.3228,12215.0
1698924297976.989,12212.0
1698924297997.6553,12213.0
1698924298018.3215,12210.0
1698924298038.9878,12209.0
1698924298059.654,12207.0
1698924298080.3206,12207.0
1698924298100.9868,12214.0
1698924298121.653,12207.0
1698924298142.319,12210.0
1698924298162.9856,12170.0
1698924298183.652,12205.0
1698924298204.318,12211.0
1698924298224.9844,12204.0
1698924298245.651,12197.0
1698924298266.3171,12193.0
1698924298286.9834,12190.0
1698924298307.6497,12182.0
1698924298328.316,12179.0
1698924298348.9822,12173.0
1698924298369.6484,12172.0
1698924298390.3147,12170.0
1698924298410.981,12172.0
1698924298431.6477,12166.0
1698924298452.3137,12161.0
1698924298472.98,12164.0
1698924298493.6462,12163.0
1698924298514.3125,12166.0
1698924298534.9788,12132.0
1698924298555.645,12167.0
1698924298576.3113,12168.0
1698924298596.9775,12179.0
1698924298617.644,12175.0
1698924298638.3103,12176.0
1698924298658.9766,12181.0
1698924298679.6428,12187.0
1698924298700.309,12187.0
1698924298720.975,12190.0
1698924298741.6416,12195.0
1698924298762.308,12199.0
1698924298782.974,12204.0
1698924298803.6406,12208.0
1698924298824.307,12212.0
1698924298844.9731,12209.0
1698924298865.6394,12205.0
1698924298886.3057,12204.0
1698924298906.972,12201.0
1698924298927.6382,12199.0
1698924298948.3044,12200.0
1698924298968.971,12203.0
1698924298989.6372,12199.0
1698924299010.3037,12194.0
1698924299030.9695,12194.0
1698924299051.636,12198.0
1698924299072.3022,12198.0
1698924299092.9685,12201.0
1698924299113.6348,12203.0
1698924299134.301,12205.0
1698924299154.9675,12208.0
1698924299175.6338,12211.0
1698924299196.3,12214.0
1698924299216.9663,12207.0
1698924299237.6326,12214.0
1698924299258.2988,12209.0
1698924299278.965,12218.0
1698924299299.631,12221.0
1698924299320.2976,12220.0
1698924299340.964,12224.0
1698924299361.6304,12221.0
1698924299382.2966,12222.0
1698924299402.963,12223.0
1698924299423.6292,12225.0
1698924299444.2954,12218.0
1698924299464.9617,12212.0
1698924299485.628,12208.0
1698924299506.2944,12199.0
1698924299526.9607,12193.0
1698924299547.627,12188.0
1698924299568.2932,12183.0
1698924299588.9597,12177.0
1698924299609.6255,12173.0
1698924299630.292,12174.0
1698924299650.9585,12167.0
1698924299671.6245,12163.0
1698924299692.291,12161.0
1698924299712.9573,12159.0
1698924299733.6235,12160.0
1698924299754.2898,12162.0
1698924299774.956,12156.0
1698924299795.6223,12157.0
1698924299816.2886,12160.0
1698924299836.9548,12159.0
1698924299857.621,12158.0
1698924299878.2876,12164.0
1698924299898.954,12167.0
1698924299919.62,12171.0
1698924299940.2864,12185.0
1698924299960.9526,12192.0
1698924299981.619,12202.0
1698924300002.2852,12201.0
1698924300022.9514,12205.0
1698924300043.618,12205.0
1698924300064.2842,12196.0
1698924300084.9504,12199.0
1698924300105.6167,12193.0
1698924300126.283,12190.0
1698924300146.9492,12183.0
1698924300167.6155,12173.0
1698924300188.2815,12164.0
1698924300208.948,12165.0
1698924300229.6145,12164.0
1698924300250.2808,12161.0
1698924300270.947,12161.0
1698924300291.6133,12162.0
1698924300312.2795,12159.0
1698924300332.9458,12162.0
1698924300353.612,12156.0
1698924300374.2783,12155.0
1698924300394.9446,12152.0
1698924300415.611,12154.0
1698924300436.277,12152.0
1698924300456.9436,12149.0
1698924300477.61,12117.0
1698924300498.276,12163.0
1698924300518.9424,12163.0
1698924300539.6086,12164.0
1698924300560.275,12166.0
1698924300580.9414,12167.0
1698924300601.6077,12169.0
1698924300622.274,12166.0
1698924300642.9402,12157.0
1698924300663.6064,12155.0
1698924300684.2727,12147.0
1698924300704.939,12139.0
1698924300725.6052,12133.0
1698924300746.2715,12129.0
1698924300766.938,12121.0
1698924300787.6042,12115.0
1698924300808.2705,12117.0
1698924300828.9368,12116.0
1698924300849.603,12118.0
1698924300870.2693,12116.0
1698924300890.9355,12117.0
1698924300911.6018,12115.0
1698924300932.268,12112.0
1698924300952.9346,12109.0
1698924300973.6008,12110.0
1698924300994.267,12117.0
1698924301014.933,12116.0
1698924301035.5996,12116.0
1698924301056.266,12123.0
1698924301076.932,12120.0
1698924301097.5984,12122.0
1698924301118.265,12121.0
1698924301138.9312,12124.0
1698924301159.5974,12118.0
1698924301180.2637,12114.0
1698924301200.93,12124.0
1698924301221.5962,12114.0
1698924301242.2625,12112.0
1698924301262.9287,12109.0
1698924301283.595,12107.0
1698924301304.2617,12102.0
1698924301324.9275,12104.0
1698924301345.594,12103.0
1698924301366.2605,12111.0
1698924301386.9265,12110.0
1698924301407.5928,12116.0
1698924301428.259,12116.0
1698924301448.9253,12117.0
1698924301469.5916,12122.0
1698924301490.258,12119.0
1698924301510.9243,12116.0
1698924301531.5906,12117.0
1698924301552.2568,12119.0
1698924301572.923,12118.0
1698924301593.5894,12120.0
1698924301614.2556,12119.0
1698924301634.922,12127.0
1698924301655.5884,12126.0
1698924301676.2546,12128.0
1698924301696.921,12133.0
1698924301717.5872,12133.0
1698924301738.2534,12138.0
1698924301758.9197,12135.0
1698924301779.586,12134.0
1698924301800.2522,12136.0
1698924301820.9185,12132.0
1698924301841.585,12125.0
1698924301862.2512,12121.0
1698924301882.9175,12121.0
1698924301903.5835,12118.0
1698924301924.25,12112.0
1698924301944.9165,12110.0
1698924301965.5825,12109.0
1698924301986.2488,12105.0
1698924302006.915,12064.0
1698924302027.5815,12102.0
1698924302048.2478,12104.0
1698924302068.914,12103.0
1698924302089.5803,12102.0
1698924302110.2466,12108.0
1698924302130.9128,12104.0
1698924302151.579,12109.0
1698924302172.2454,12103.0
1698924302192.9116,12100.0
1698924302213.578,12100.0
1698924302234.2444,12095.0
1698924302254.9106,12099.0
1698924302275.577,12099.0
1698924302296.2432,12103.0
1698924302316.9094,12104.0
1698924302337.5757,12109.0
1698924302358.242,12104.0
1698924302378.9084,12108.0
1698924302399.5747,12104.0
1698924302420.241,12102.0
1698924302440.9072,12099.0
1698924302461.5735,12091.0
1698924302482.2395,12090.0
1698924302502.906,12088.0
1698924302523.5725,12084.0
1698924302544.2383,12086.0
1698924302564.905,12084.0
1698924302585.5713,12086.0
1698924302606.2375,12096.0
1698924302626.9038,12098.0
1698924302647.57,12104.0
1698924302668.2363,12104.0
1698924302688.9026,12116.0
1698924302709.5688,12112.0
1698924302730.235,12118.0
1698924302750.9016,12122.0
1698924302771.568,12119.0
1698924302792.234,12122.0
1698924302812.9004,12123.0
1698924302833.567,12126.0
1698924302854.233,12122.0
1698924302874.8992,12126.0
1698924302895.5654,12117.0
1698924302916.232,12120.0
1698924302936.8982,12119.0
1698924302957.5645,12078.0
1698924302978.2307,12117.0
1698924302998.897,12109.0
1698924303019.5632,12102.0
1698924303040.2295,12102.0
1698924303060.8958,12103.0
1698924303081.562,12105.0
1698924303102.2285,12106.0
1698924303122.8948,12111.0
1698924303143.561,12118.0
1698924303164.2273,12123.0
1698924303184.8936,12129.0
1698924303205.5598,12141.0
1698924303226.226,12147.0
1698924303246.8923,12153.0
1698924303267.5586,12156.0
1698924303288.225,12158.0
1698924303308.8914,12160.0
1698924303329.5576,12165.0
1698924303350.224,12172.0
1698924303370.89,12172.0
1698924303391.5564,12179.0
1698924303412.223,12184.0
1698924303432.889,12190.0
1698924303453.5554,12197.0
1698924303474.2217,12203.0
1698924303494.888,12210.0
1698924303515.5542,12211.0
1698924303536.2205,12215.0
1698924303556.8867,12179.0
1698924303577.553,12223.0
1698924303598.2192,12223.0
1698924303618.8855,12222.0
1698924303639.552,12213.0
1698924303660.2185,12211.0
1698924303680.8845,12206.0
1698924303701.5508,12206.0
1698924303722.217,12195.0
1698924303742.8833,12191.0
1698924303763.5496,12188.0
1698924303784.2158,12182.0
1698924303804.882,12183.0
1698924303825.5486,12183.0
1698924303846.2148,12179.0
1698924303866.881,12180.0
1698924303887.5474,12176.0
1698924303908.2136,12176.0
1698924303928.88,12177.0
1698924303949.546,12175.0
1698924303970.2124,12176.0
1698924303990.879,12168.0
1698924304011.5452,12168.0
1698924304032.2114,12169.0
1698924304052.8777,12169.0
1698924304073.544,12168.0
1698924304094.2102,12168.0
1698924304114.8765,12164.0
1698924304135.5427,12172.0
1698924304156.209,12166.0
1698924304176.8755,12168.0
1698924304197.5415,12158.0
1698924304218.208,12154.0
1698924304238.8745,12152.0
1698924304259.5403,12143.0
1698924304280.2068,12137.0
1698924304300.873,12134.0
1698924304321.5393,12124.0
1698924304342.2056,12120.0
1698924304362.872,12118.0
1698924304383.5383,12115.0
1698924304404.2046,12116.0
1698924304424.8708,12127.0
1698924304445.537,12118.0
1698924304466.2034,12126.0
1698924304486.8696,12131.0
1698924304507.536,12139.0
1698924304528.2024,12137.0
1698924304548.869,12146.0
1698924304569.535,12149.0
1698924304590.2012,12153.0
1698924304610.8674,12165.0
1698924304631.5337,12173.0
1698924304652.2,12181.0
1698924304672.8662,12189.0
1698924304693.5325,12194.0
1698924304714.199,12205.0
1698924304734.8652,12213.0
1698924304755.5315,12225.0
1698924304776.1978,12234.0
1698924304796.864,12247.0
1698924304817.5305,12254.0
1698924304838.1963,12265.0
1698924304858.8628,12269.0
1698924304879.529,12271.0
1698924304900.1956,12272.0
1698924304920.8618,12280.0
1698924304941.528,12281.0
1698924304962.1943,12283.0
1698924304982.8606,12289.0
1698924305003.5269,12292.0
1698924305024.193,12288.0
1698924305044.8594,12294.0
1698924305065.526,12299.0
1698924305086.192,12299.0
1698924305106.8584,12305.0
1698924305127.525,12316.0
1698924305148.191,12320.0
1698924305168.8572,12325.0
1698924305189.5234,12333.0
1698924305210.1897,12337.0
1698924305230.856,12352.0
1698924305251.5225,12356.0
1698924305272.1887,12371.0
1698924305292.855,12374.0
1698924305313.5212,12379.0
1698924305334.1875,12394.0
1698924305354.8538,12396.0
1698924305375.52,12401.0
1698924305396.1863,12410.0
1698924305416.8523,12414.0
1698924305437.519,12420.0
1698924305458.1853,12429.0
1698924305478.8516,12428.0
1698924305499.5178,12437.0
1698924305520.184,12441.0
1698924305540.8503,12438.0
1698924305561.5166,12430.0
1698924305582.1829,12428.0
1698924305602.849,12424.0
1698924305623.5156,12422.0
1698924305644.182,12413.0
1698924305664.848,12409.0
1698924305685.5144,12408.0
1698924305706.181,12414.0
1698924305726.847,12421.0
1698924305747.5132,12430.0
1698924305768.1794,12428.0
1698924305788.846,12429.0
1698924305809.5122,12434.0
1698924305830.1785,12396.0
1698924305850.8447,12439.0
1698924305871.511,12444.0
1698924305892.1772,12439.0
1698924305912.8435,12445.0
1698924305933.5098,12448.0
1698924305954.176,12445.0
1698924305974.8423,12451.0
1698924305995.5088,12450.0
1698924306016.175,12453.0
1698924306036.8413,12457.0
1698924306057.5076,12449.0
1698924306078.1738,12451.0
1698924306098.84,12452.0
1698924306119.5063,12456.0
1698924306140.1726,12453.0
1698924306160.839,12451.0
1698924306181.5054,12456.0
1698924306202.1716,12451.0
1698924306222.838,12447.0
1698924306243.5042,12452.0
1698924306264.1704,12448.0
1698924306284.837,12444.0
1698924306305.503,12443.0
1698924306326.1694,12439.0
1698924306346.8357,12438.0
1698924306367.502,12434.0
1698924306388.1682,12431.0
1698924306408.8345,12433.0
1698924306429.5007,12433.0
1698924306450.167,12437.0
1698924306470.8333,12438.0
1698924306491.4995,12442.0
1698924306512.166,12445.0
1698924306532.8325,12454.0
1698924306553.4983,12411.0
1698924306574.1648,12448.0
1698924306594.831,12454.0
1698924306615.4973,12461.0
1698924306636.1636,12460.0
1698924306656.8298,12465.0
1698924306677.496,12462.0
1698924306698.1626,12470.0
1698924306718.8289,12473.0
1698924306739.495,12473.0
1698924306760.1614,12478.0
1698924306780.8276,12483.0
1698924306801.494,12488.0
1698924306822.1602,12487.0
1698924306842.8264,12494.0
1698924306863.493,12486.0
1698924306884.1592,12490.0
1698924306904.8254,12482.0
1698924306925.4917,12474.0
1698924306946.158,12470.0
1698924306966.8242,12466.0
1698924306987.4905,12458.0
1698924307008.1567,12455.0
1698924307028.823,12455.0
1698924307049.4895,12415.0
1698924307070.1558,12462.0
1698924307090.822,12460.0
1698924307111.4883,12461.0
1698924307132.1543,12462.0
1698924307152.8208,12465.0
1698924307173.487,12466.0
1698924307194.1533,12468.0
1698924307214.8196,12465.0
1698924307235.486,12470.0
1698924307256.1523,12474.0
1698924307276.8186,12478.0
1698924307297.4849,12440.0
1698924307318.1511,12481.0
1698924307338.8174,12483.0
1698924307359.4836,12486.0
1698924307380.15,12489.0
1698924307400.8164,12494.0
1698924307421.483,12495.0
1698924307442.149,12492.0
1698924307462.8152,12495.0
1698924307483.4814,12498.0
1698924307504.1477,12499.0
1698924307524.814,12499.0
1698924307545.4802,12509.0
1698924307566.1465,12512.0
1698924307586.813,12507.0
1698924307607.4792,12519.0
1698924307628.1455,12518.0
1698924307648.8118,12523.0
1698924307669.478,12528.0
1698924307690.1443,12529.0
1698924307710.8103,12531.0
1698924307731.4768,12533.0
1698924307752.143,12537.0
1698924307772.8096,12539.0
1698924307793.4758,12545.0
1698924307814.142,12542.0
1698924307834.8083,12546.0
1698924307855.4746,12543.0
1698924307876.1409,12550.0
1698924307896.8071,12551.0
1698924307917.4734,12560.0
1698924307938.14,12564.0
1698924307958.8062,12562.0
1698924307979.4724,12568.0
1698924308000.139,12570.0
1698924308020.805,12569.0
1698924308041.4712,12576.0
1698924308062.1377,12577.0
1698924308082.8037,12588.0
1698924308103.47,12582.0
1698924308124.1365,12592.0
1698924308144.8027,12586.0
1698924308165.469,12596.0
1698924308186.1353,12594.0
1698924308206.8015,12597.0
1698924308227.4678,12595.0
1698924308248.134,12595.0
1698924308268.8003,12599.0
1698924308289.4666,12592.0
1698924308310.133,12597.0
1698924308330.7993,12596.0
1698924308351.4656,12593.0
1698924308372.1318,12594.0
1698924308392.798,12595.0
1698924308413.4644,12598.0
1698924308434.1306,12602.0
1698924308454.7969,12603.0
1698924308475.4634,12604.0
1698924308496.1296,12608.0
1698924308516.796,12613.0
1698924308537.4622,12612.0
1698924308558.1284,12619.0
1698924308578.795,12618.0
1698924308599.461,12616.0
1698924308620.1272,12621.0
1698924308640.7937,12622.0
1698924308661.46,12621.0
1698924308682.1262,12622.0
1698924308702.7925,12622.0
1698924308723.4587,12621.0
1698924308744.125,12623.0
1698924308764.7913,12627.0
1698924308785.4575,12619.0
1698924308806.1238,12618.0
1698924308826.79,12618.0
1698924308847.4563,12615.0
1698924308868.1228,12620.0
1698924308888.789,12617.0
1698924308909.455,12618.0
1698924308930.1216,12614.0
1698924308950.7878,12613.0
1698924308971.454,12611.0
1698924308992.1204,12610.0
1698924309012.7866,12611.0
1698924309033.4531,12611.0
1698924309054.1194,12612.0
1698924309074.7856,12609.0
1698924309095.452,12609.0
1698924309116.1182,12619.0
1698924309136.7844,12641.0
1698924309157.4507,12677.0
1698924309178.117,12702.0
1698924309198.7834,12726.0
1698924309219.4497,12741.0
1698924309240.116,12747.0
1698924309260.7822,12761.0
1698924309281.4485,12765.0
1698924309302.1147,12775.0
1698924309322.781,12782.0
1698924309343.4473,12749.0
1698924309364.1135,12794.0
1698924309384.78,12797.0
1698924309405.4463,12803.0
1698924309426.1123,12803.0
1698924309446.7788,12807.0
1698924309467.445,12807.0
1698924309488.111,12804.0
1698924309508.7776,12802.0
1698924309529.4438,12799.0
1698924309550.11,12797.0
1698924309570.7766,12799.0
1698924309591.4429,12795.0
1698924309612.1091,12792.0
1698924309632.7754,12791.0
1698924309653.4417,12789.0
1698924309674.108,12791.0
1698924309694.7742,12784.0
1698924309715.4404,12784.0
1698924309736.107,12785.0
1698924309756.7732,12781.0
1698924309777.4397,12786.0
1698924309798.1057,12790.0
1698924309818.772,12790.0
1698924309839.4382,12789.0
1698924309860.1045,12793.0
1698924309880.7708,12786.0
1698924309901.437,12792.0
1698924309922.1035,12794.0
1698924309942.7698,12792.0
1698924309963.436,12798.0
1698924309984.1023,12794.0
1698924310004.7686,12797.0
1698924310025.4348,12798.0
1698924310046.101,12802.0
1698924310066.767,12805.0
1698924310087.4336,12802.0
1698924310108.1,12762.0
1698924310128.7664,12803.0
1698924310149.4326,12803.0
1698924310170.0989,12803.0
1698924310190.7651,12803.0
1698924310211.4314,12803.0
1698924310232.0977,12804.0
1698924310252.764,12798.0
1698924310273.4304,12797.0
1698924310294.0967,12787.0
1698924310314.763,12783.0
1698924310335.4292,12772.0
1698924310356.0957,12779.0
1698924310376.7617,12770.0
1698924310397.428,12767.0
1698924310418.0942,12769.0
1698924310438.7605,12767.0
1698924310459.427,12769.0
1698924310480.0933,12767.0
1698924310500.7595,12732.0
1698924310521.4258,12776.0
1698924310542.092,12771.0
1698924310562.7583,12777.0
1698924310583.4246,12775.0
1698924310604.0908,12778.0
1698924310624.757,12778.0
1698924310645.4236,12779.0
1698924310666.0898,12778.0
1698924310686.756,12790.0
1698924310707.4224,12785.0
1698924310728.0886,12790.0
1698924310748.755,12797.0
1698924310769.4211,12795.0
1698924310790.0874,12796.0
1698924310810.754,12803.0
1698924310831.4202,12800.0
1698924310852.0864,12798.0
1698924310872.7527,12799.0
1698924310893.419,12803.0
1698924310914.0852,12814.0
1698924310934.7517,12818.0
1698924310955.4175,12821.0
1698924310976.084,12820.0
1698924310996.7505,12823.0
