timestamp,ppg
1698673075.0013103,12313.0
1698673075.0217824,12330.0
1698673075.042255,12354.0
1698673075.0627272,12384.0
1698673075.0831997,12406.0
1698673075.103672,12420.0
1698673075.1241443,12437.0
1698673075.1446166,12455.0
1698673075.1650891,12464.0
1698673075.1855612,12473.0
1698673075.2060337,12478.0
1698673075.226506,12483.0
1698673075.2469785,12486.0
1698673075.2674506,12498.0
1698673075.287923,12503.0
1698673075.3083956,12516.0
1698673075.328868,12531.0
1698673075.3493402,12545.0
1698673075.3698125,12565.0
1698673075.390285,12580.0
1698673075.410757,12596.0
1698673075.4312296,12610.0
1698673075.4517019,12625.0
1698673075.4721744,12623.0
1698673075.4926465,12655.0
1698673075.513119,12667.0
1698673075.5335913,12673.0
1698673075.5540638,12690.0
1698673075.5745358,12700.0
1698673075.5950084,12716.0
1698673075.6154807,12724.0
1698673075.6359532,12737.0
1698673075.6564252,12749.0
1698673075.6768978,12759.0
1698673075.69737,12769.0
1698673075.7178423,12779.0
1698673075.7383146,12788.0
1698673075.7587872,12793.0
1698673075.7792594,12803.0
1698673075.799732,12810.0
1698673075.820204,12817.0
1698673075.8406765,12820.0
1698673075.8611488,12824.0
1698673075.8816211,12830.0
1698673075.9020934,12836.0
1698673075.922566,12842.0
1698673075.9430382,12851.0
1698673075.9635105,12858.0
1698673075.9839828,12870.0
1698673076.004455,12881.0
1698673076.0249274,12893.0
1698673076.0454,12900.0
1698673076.0658724,12911.0
1698673076.0863447,12928.0
1698673076.1068172,12931.0
1698673076.1272893,12942.0
1698673076.1477618,12949.0
1698673076.1682339,12962.0
1698673076.1887064,12964.0
1698673076.2091787,12970.0
1698673076.2296512,12977.0
1698673076.2501235,12987.0
1698673076.270596,12995.0
1698673076.291068,13004.0
1698673076.3115404,13009.0
1698673076.332013,13018.0
1698673076.3524852,13011.0
1698673076.3729575,13035.0
1698673076.39343,13044.0
1698673076.4139023,13052.0
1698673076.4343746,13059.0
1698673076.4548469,13068.0
1698673076.4753191,13076.0
1698673076.4957914,13081.0
1698673076.516264,13091.0
1698673076.5367362,13098.0
1698673076.5572088,13105.0
1698673076.577681,13111.0
1698673076.5981534,13102.0
1698673076.6186254,13124.0
1698673076.639098,13130.0
1698673076.6595705,13131.0
1698673076.6800427,13139.0
1698673076.700515,13140.0
1698673076.7209876,13147.0
1698673076.7414598,13154.0
1698673076.761932,13158.0
1698673076.7824042,13163.0
1698673076.802877,13170.0
1698673076.8233492,13181.0
1698673076.8438215,13186.0
1698673076.864294,13189.0
1698673076.8847663,13191.0
1698673076.9052384,13194.0
1698673076.925711,13199.0
1698673076.9461832,13199.0
1698673076.9666557,13199.0
1698673076.987128,13205.0
1698673077.0076003,13219.0
1698673077.0280728,13222.0
1698673077.0485451,13214.0
1698673077.0690172,13250.0
1698673077.0894895,13259.0
1698673077.1099622,13271.0
1698673077.1304345,13279.0
1698673077.1509068,13270.0
1698673077.171379,13291.0
1698673077.1918516,13292.0
1698673077.212324,13290.0
1698673077.232796,13299.0
1698673077.2532685,13280.0
1698673077.273741,13308.0
1698673077.2942133,13318.0
1698673077.3146856,13329.0
1698673077.3351579,13332.0
1698673077.3556304,13343.0
1698673077.3761022,13352.0
1698673077.396575,13359.0
1698673077.4170473,13366.0
1698673077.4375198,13379.0
1698673077.4579918,13388.0
1698673077.4784644,13389.0
1698673077.4989367,13401.0
1698673077.5194092,13409.0
1698673077.539881,13416.0
1698673077.5603538,13426.0
1698673077.5808263,13431.0
1698673077.6012986,13438.0
1698673077.6217709,13451.0
1698673077.6422431,13457.0
1698673077.6627157,13467.0
1698673077.683188,13471.0
1698673077.7036602,13480.0
1698673077.7241325,13487.0
1698673077.744605,13492.0
1698673077.7650774,13481.0
1698673077.7855496,13503.0
1698673077.806022,13511.0
1698673077.8264945,13522.0
1698673077.8469665,13508.0
1698673077.867439,13534.0
1698673077.8879113,13541.0
1698673077.9083838,13546.0
1698673077.928856,13546.0
1698673077.9493284,13550.0
1698673077.9698007,13551.0
1698673077.9902732,13553.0
1698673078.0107453,13552.0
1698673078.0312178,13536.0
1698673078.05169,13561.0
1698673078.0721626,13558.0
1698673078.0926347,13563.0
1698673078.1131072,13563.0
1698673078.1335795,13564.0
1698673078.154052,13571.0
1698673078.174524,13572.0
1698673078.1949966,13574.0
1698673078.215469,13576.0
1698673078.2359414,13583.0
1698673078.2564135,13593.0
1698673078.276886,13583.0
1698673078.2973585,13611.0
1698673078.3178306,13621.0
1698673078.338303,13622.0
1698673078.3587754,13630.0
1698673078.379248,13630.0
1698673078.39972,13635.0
1698673078.4201925,13646.0
1698673078.4406648,13647.0
1698673078.4611373,13636.0
1698673078.4816093,13659.0
1698673078.5020819,13666.0
1698673078.5225542,13672.0
1698673078.5430267,13679.0
1698673078.5634987,13685.0
1698673078.5839713,13689.0
1698673078.6044436,13691.0
1698673078.624916,13699.0
1698673078.6453881,13703.0
1698673078.6658607,13707.0
1698673078.686333,13712.0
1698673078.7068055,13710.0
1698673078.7272775,13719.0
1698673078.74775,13725.0
1698673078.7682223,13729.0
1698673078.7886946,13734.0
1698673078.809167,13737.0
1698673078.8296394,13721.0
1698673078.8501117,13745.0
1698673078.870584,13729.0
1698673078.8910563,13751.0
1698673078.9115288,13760.0
1698673078.932001,13760.0
1698673078.9524734,13766.0
1698673078.9729457,13773.0
1698673078.9934182,13772.0
1698673079.0138907,13777.0
1698673079.0343628,13782.0
1698673079.0548353,13784.0
1698673079.0753076,13763.0
1698673079.0957801,13790.0
1698673079.1162522,13790.0
1698673079.1367247,13794.0
1698673079.157197,13796.0
1698673079.1776695,13803.0
1698673079.1981416,13804.0
1698673079.218614,13806.0
1698673079.2390864,13809.0
1698673079.2595587,13815.0
1698673079.280031,13818.0
1698673079.3005035,13818.0
1698673079.3209758,13822.0
1698673079.341448,13830.0
1698673079.3619204,13835.0
1698673079.382393,13822.0
1698673079.4028652,13830.0
1698673079.4233375,13854.0
1698673079.4438097,13860.0
1698673079.4642823,13871.0
1698673079.4847546,13880.0
1698673079.5052269,13889.0
1698673079.5256991,13898.0
1698673079.5461717,13907.0
1698673079.566644,13920.0
1698673079.5871162,13930.0
1698673079.6075885,13938.0
1698673079.628061,13945.0
1698673079.6485333,13955.0
1698673079.6690056,13959.0
1698673079.689478,13968.0
1698673079.7099504,13957.0
1698673079.7304225,13982.0
1698673079.750895,13990.0
1698673079.7713675,13992.0
1698673079.7918398,14000.0
1698673079.8123121,14005.0
1698673079.8327844,14011.0
1698673079.853257,14015.0
1698673079.8737292,14023.0
1698673079.8942015,14028.0
1698673079.9146738,14034.0
1698673079.9351463,14041.0
1698673079.9556189,14046.0
1698673079.976091,14049.0
1698673079.9965632,14056.0
1698673080.0170357,14067.0
1698673080.037508,14072.0
1698673080.0579803,14078.0
1698673080.0784526,14082.0
1698673080.098925,14089.0
1698673080.1193976,14080.0
1698673080.1398697,14102.0
1698673080.160342,14111.0
1698673080.1808145,14113.0
1698673080.2012866,14116.0
1698673080.221759,14126.0
1698673080.2422314,14128.0
1698673080.2627041,14132.0
1698673080.283176,14138.0
1698673080.3036485,14141.0
1698673080.3241208,14144.0
1698673080.3445933,14149.0
1698673080.3650653,14152.0
1698673080.3855379,14154.0
1698673080.4060104,14151.0
1698673080.426483,14157.0
1698673080.4469547,14151.0
1698673080.4674273,14152.0
1698673080.4878995,14162.0
1698673080.508372,14162.0
1698673080.5288444,14161.0
1698673080.549317,14165.0
1698673080.5697892,14166.0
1698673080.5902617,14173.0
1698673080.6107337,14168.0
1698673080.631206,14175.0
1698673080.6516786,14173.0
1698673080.6721509,14176.0
1698673080.6926231,14176.0
1698673080.7130957,14180.0
1698673080.7335682,14177.0
1698673080.75404,14177.0
1698673080.7745125,14182.0
1698673080.7949848,14178.0
1698673080.8154573,14183.0
1698673080.8359294,14186.0
1698673080.8564022,14188.0
1698673080.8768744,14188.0
1698673080.8973467,14186.0
1698673080.9178188,14195.0
1698673080.9382913,14199.0
1698673080.9587636,14215.0
1698673080.9792361,14225.0
1698673080.9997084,14231.0
1698673081.020181,14243.0
1698673081.040653,14245.0
1698673081.0611255,14253.0
1698673081.0815976,14253.0
1698673081.10207,14248.0
1698673081.1225424,14239.0
1698673081.143015,14239.0
1698673081.163487,14229.0
1698673081.1839597,14222.0
1698673081.2044318,14223.0
1698673081.224904,14222.0
1698673081.2453763,14223.0
1698673081.2658489,14225.0
1698673081.2863214,14228.0
1698673081.3067937,14236.0
1698673081.3272662,14233.0
1698673081.3477383,14230.0
1698673081.3682108,14234.0
1698673081.3886828,14219.0
1698673081.4091554,14237.0
1698673081.4296277,14240.0
1698673081.4501002,14233.0
1698673081.4705725,14236.0
1698673081.491045,14232.0
1698673081.511517,14233.0
1698673081.5319896,14213.0
1698673081.5524616,14239.0
1698673081.5729342,14263.0
1698673081.5934064,14300.0
1698673081.613879,14337.0
1698673081.634351,14384.0
1698673081.6548235,14451.0
1698673081.6752958,14509.0
1698673081.695768,14588.0
1698673081.7162404,14609.0
1698673081.736713,14631.0
1698673081.7571852,14647.0
1698673081.7776577,14652.0
1698673081.7981298,14694.0
1698673081.8186023,14725.0
1698673081.8390746,14749.0
1698673081.859547,14770.0
1698673081.8800192,14786.0
1698673081.9004917,14811.0
1698673081.920964,14825.0
1698673081.9414363,14836.0
1698673081.9619086,14849.0
1698673081.982381,14853.0
1698673082.0028536,14862.0
1698673082.0233257,14858.0
1698673082.0437982,14839.0
1698673082.0642705,14854.0
1698673082.084743,14850.0
1698673082.105215,14851.0
1698673082.1256876,14855.0
1698673082.14616,14865.0
1698673082.1666322,14865.0
1698673082.1871045,14866.0
1698673082.207577,14874.0
1698673082.2280493,14881.0
1698673082.2485216,14892.0
1698673082.2689939,14899.0
1698673082.2894664,14899.0
1698673082.3099387,14899.0
1698673082.330411,14900.0
1698673082.3508832,14896.0
1698673082.3713558,14880.0
1698673082.3918278,14900.0
1698673082.4123003,14903.0
1698673082.4327726,14886.0
1698673082.4532452,14900.0
1698673082.4737175,14901.0
1698673082.4941897,14896.0
1698673082.514662,14898.0
1698673082.5351346,14902.0
1698673082.5556068,14906.0
1698673082.5760791,14908.0
1698673082.5965514,14910.0
1698673082.617024,14910.0
1698673082.637496,14913.0
1698673082.6579685,14912.0
1698673082.6784408,14913.0
1698673082.698913,14914.0
1698673082.7193854,14916.0
1698673082.739858,14916.0
1698673082.7603304,14919.0
1698673082.7808027,14899.0
1698673082.801275,14920.0
1698673082.8217473,14918.0
1698673082.8422196,14920.0
1698673082.8626919,14925.0
1698673082.8831644,14921.0
1698673082.9036367,14921.0
1698673082.9241092,14902.0
1698673082.9445815,14907.0
1698673082.9650538,14929.0
1698673082.9855258,14933.0
1698673083.0059984,14934.0
1698673083.026471,14929.0
1698673083.0469432,14931.0
1698673083.0674155,14928.0
1698673083.087888,14931.0
1698673083.10836,14914.0
1698673083.1288326,14936.0
1698673083.1493049,14935.0
1698673083.1697772,14937.0
1698673083.1902494,14936.0
1698673083.210722,14936.0
1698673083.2311943,14937.0
1698673083.2516668,14942.0
1698673083.2721388,14938.0
1698673083.2926111,14925.0
1698673083.3130834,14941.0
1698673083.3335562,14944.0
1698673083.3540282,14947.0
1698673083.3745008,14946.0
1698673083.394973,14946.0
1698673083.4154456,14946.0
1698673083.4359174,14948.0
1698673083.45639,14947.0
1698673083.4768622,14947.0
1698673083.497335,14948.0
1698673083.5178072,14949.0
1698673083.5382795,14944.0
1698673083.558752,14945.0
1698673083.579224,14950.0
1698673083.5996964,14952.0
1698673083.620169,14949.0
1698673083.6406415,14950.0
1698673083.6611135,14947.0
1698673083.681586,14947.0
1698673083.7020583,14927.0
1698673083.7225308,14931.0
1698673083.743003,14950.0
1698673083.7634752,14950.0
1698673083.7839477,14952.0
1698673083.8044202,14947.0
1698673083.8248923,14950.0
1698673083.8453648,14950.0
1698673083.865837,14948.0
1698673083.8863096,14952.0
1698673083.9067814,14954.0
1698673083.9272542,14932.0
1698673083.9477265,14952.0
1698673083.968199,14953.0
1698673083.988671,14955.0
1698673084.0091436,14952.0
1698673084.0296159,14957.0
1698673084.0500884,14959.0
1698673084.0705602,14954.0
1698673084.091033,14954.0
1698673084.1115053,14958.0
1698673084.1319776,14960.0
1698673084.1524498,14955.0
1698673084.1729224,14958.0
1698673084.1933947,14957.0
1698673084.213867,14958.0
1698673084.2343392,14959.0
1698673084.2548118,14958.0
1698673084.2752843,14962.0
1698673084.2957563,14964.0
1698673084.3162289,14964.0
1698673084.3367012,14963.0
1698673084.3571737,14961.0
1698673084.3776457,14963.0
1698673084.3981183,14963.0
1698673084.4185905,14962.0
1698673084.439063,14965.0
1698673084.4595351,14969.0
1698673084.4800076,14944.0
1698673084.50048,14967.0
1698673084.5209525,14947.0
1698673084.5414245,14969.0
1698673084.561897,14966.0
1698673084.5823693,14968.0
1698673084.6028416,14968.0
1698673084.623314,14968.0
1698673084.6437864,14972.0
1698673084.6642587,14972.0
1698673084.684731,14970.0
1698673084.7052033,14967.0
1698673084.7256758,14948.0
1698673084.746148,14973.0
1698673084.7666204,14969.0
1698673084.7870927,14974.0
1698673084.8075652,14973.0
1698673084.8280375,14974.0
1698673084.8485098,14972.0
1698673084.868982,14977.0
1698673084.8894546,14971.0
1698673084.909927,14968.0
1698673084.9303992,14974.0
1698673084.9508715,14975.0
1698673084.971344,14978.0
1698673084.9918165,14977.0
1698673085.0122886,14977.0
1698673085.032761,14974.0
1698673085.0532334,14978.0
1698673085.0737057,14974.0
1698673085.094178,14975.0
1698673085.1146505,14975.0
1698673085.1351228,14978.0
1698673085.155595,14980.0
1698673085.1760674,14956.0
1698673085.1965399,14980.0
1698673085.2170122,14982.0
1698673085.2374845,14985.0
1698673085.2579567,14987.0
1698673085.2784293,14985.0
1698673085.2989016,14991.0
1698673085.3193738,14987.0
1698673085.3398461,14992.0
1698673085.3603187,14992.0
1698673085.380791,14997.0
1698673085.4012632,14998.0
1698673085.4217355,15000.0
1698673085.442208,15001.0
1698673085.4626803,15002.0
1698673085.4831526,14973.0
1698673085.503625,14991.0
1698673085.5240974,14963.0
1698673085.5445695,14973.0
1698673085.565042,14965.0
1698673085.5855143,14969.0
1698673085.6059868,14965.0
1698673085.626459,14975.0
1698673085.6469314,14977.0
1698673085.6674037,14977.0
1698673085.6878762,14976.0
1698673085.7083483,14978.0
1698673085.7288208,14987.0
1698673085.7492933,14997.0
1698673085.7697656,14995.0
1698673085.790238,14989.0
1698673085.8107102,14987.0
1698673085.8311827,14992.0
1698673085.851655,14994.0
1698673085.8721273,14996.0
1698673085.8925996,15000.0
1698673085.913072,15002.0
1698673085.9335444,14975.0
1698673085.9540167,14998.0
1698673085.974489,14994.0
1698673085.9949615,14985.0
1698673086.0154335,14988.0
1698673086.035906,14993.0
1698673086.0563784,14993.0
1698673086.076851,14992.0
1698673086.097323,14971.0
1698673086.1177955,14993.0
1698673086.1382678,14994.0
1698673086.1587403,14997.0
1698673086.1792123,14997.0
1698673086.1996849,15000.0
1698673086.2201571,14980.0
1698673086.2406297,15002.0
1698673086.2611017,15002.0
1698673086.2815742,15010.0
1698673086.3020465,14994.0
1698673086.322519,15015.0
1698673086.342991,15021.0
1698673086.3634636,15021.0
1698673086.383936,15025.0
1698673086.4044085,15028.0
1698673086.4248805,15030.0
1698673086.445353,15028.0
1698673086.4658256,15011.0
1698673086.4862976,15034.0
1698673086.5067701,15031.0
1698673086.5272424,15012.0
1698673086.547715,15032.0
1698673086.568187,15031.0
1698673086.5886595,15037.0
1698673086.6091318,15044.0
1698673086.6296043,15039.0
1698673086.6500764,15041.0
1698673086.670549,15035.0
1698673086.6910212,15041.0
1698673086.7114937,15039.0
1698673086.7319658,15043.0
1698673086.7524383,15045.0
1698673086.7729106,15042.0
1698673086.7933831,15043.0
1698673086.8138552,15042.0
1698673086.8343277,15047.0
1698673086.8548,15047.0
1698673086.8752725,15047.0
1698673086.8957446,15035.0
1698673086.916217,15052.0
1698673086.9366896,15049.0
1698673086.9571617,15052.0
1698673086.977634,15056.0
1698673086.9981065,15062.0
1698673087.0185788,15062.0
1698673087.039051,15055.0
1698673087.0595233,15043.0
1698673087.0799959,15045.0
1698673087.1004684,15044.0
1698673087.1209404,15053.0
1698673087.1414127,15057.0
1698673087.1618853,15049.0
1698673087.1823575,15050.0
1698673087.2028298,15046.0
1698673087.2233024,15048.0
1698673087.243775,15053.0
1698673087.2642472,15031.0
1698673087.2847192,15049.0
1698673087.3051918,15050.0
1698673087.325664,15049.0
1698673087.3461366,15051.0
1698673087.3666086,15050.0
1698673087.3870811,15051.0
1698673087.4075537,15052.0
1698673087.428026,15046.0
1698673087.448498,15048.0
1698673087.4689705,15050.0
1698673087.4894428,15045.0
1698673087.509915,15041.0
1698673087.5303876,15043.0
1698673087.5508602,15048.0
1698673087.5713325,15045.0
1698673087.5918045,15040.0
1698673087.6122768,15037.0
1698673087.6327493,15036.0
1698673087.6532216,15037.0
1698673087.673694,15043.0
1698673087.6941664,15040.0
1698673087.714639,15042.0
1698673087.735111,15046.0
1698673087.7555833,15050.0
1698673087.7760556,15047.0
1698673087.796528,15048.0
1698673087.8170004,15048.0
1698673087.837473,15053.0
1698673087.857945,15049.0
1698673087.8784175,15051.0
1698673087.8988898,15054.0
1698673087.919362,15058.0
1698673087.9398344,15058.0
1698673087.960307,15034.0
1698673087.9807792,15059.0
1698673088.0012517,15057.0
1698673088.0217242,15054.0
1698673088.0421963,15056.0
1698673088.0626686,15038.0
1698673088.0831409,15061.0
1698673088.1036134,15062.0
1698673088.1240857,15058.0
1698673088.1445582,15043.0
1698673088.1650305,15063.0
1698673088.1855028,15069.0
1698673088.205975,15073.0
1698673088.2264473,15070.0
1698673088.2469196,15075.0
1698673088.2673922,15078.0
1698673088.2878644,15080.0
1698673088.308337,15090.0
1698673088.328809,15086.0
1698673088.3492815,15089.0
1698673088.3697538,15081.0
1698673088.3902261,15085.0
1698673088.4106984,15085.0
1698673088.431171,15087.0
1698673088.451643,15082.0
1698673088.4721155,15082.0
1698673088.4925878,15082.0
1698673088.5130603,15076.0
1698673088.5335324,15074.0
1698673088.554005,15075.0
1698673088.5744772,15078.0
1698673088.5949497,15084.0
1698673088.615422,15084.0
1698673088.6358943,15081.0
1698673088.6563666,15054.0
1698673088.676839,15079.0
1698673088.6973112,15083.0
1698673088.7177837,15087.0
1698673088.7382562,15091.0
1698673088.7587285,15086.0
1698673088.7792008,15082.0
1698673088.799673,15063.0
1698673088.8201456,15085.0
1698673088.840618,15084.0
1698673088.8610902,15082.0
1698673088.8815625,15064.0
1698673088.902035,15087.0
1698673088.922507,15085.0
1698673088.9429796,15081.0
1698673088.9634519,15073.0
1698673088.9839244,15078.0
1698673089.0043964,15079.0
1698673089.024869,15081.0
1698673089.0453413,15082.0
1698673089.0658138,15080.0
1698673089.0862858,15077.0
1698673089.1067584,15079.0
1698673089.1272306,15088.0
1698673089.1477032,15089.0
1698673089.1681752,15090.0
1698673089.1886477,15093.0
1698673089.20912,15094.0
1698673089.2295923,15097.0
1698673089.2500646,15099.0
1698673089.2705371,15099.0
1698673089.2910094,15096.0
1698673089.311482,15093.0
1698673089.331954,15091.0
1698673089.3524265,15095.0
1698673089.3728988,15096.0
1698673089.393371,15098.0
1698673089.4138434,15100.0
1698673089.434316,15098.0
1698673089.4547884,15080.0
1698673089.4752605,15102.0
1698673089.495733,15104.0
1698673089.516205,15104.0
1698673089.5366776,15101.0
1698673089.55715,15098.0
1698673089.5776224,15100.0
1698673089.5980947,15108.0
1698673089.6185672,15109.0
1698673089.6390393,15110.0
1698673089.6595118,15108.0
1698673089.6799839,15113.0
1698673089.7004564,15113.0
1698673089.7209287,15119.0
1698673089.7414012,15121.0
1698673089.7618735,15118.0
1698673089.782346,15093.0
1698673089.802818,15116.0
1698673089.8232903,15112.0
1698673089.8437629,15108.0
1698673089.8642352,15112.0
1698673089.8847075,15118.0
1698673089.90518,15119.0
1698673089.9256523,15119.0
1698673089.9461246,15116.0
1698673089.9665968,15114.0
1698673089.9870691,15116.0
1698673090.0075414,15125.0
1698673090.028014,15127.0
1698673090.0484862,15120.0
1698673090.0689588,15117.0
1698673090.089431,15117.0
1698673090.1099033,15118.0
1698673090.1303754,15118.0
1698673090.150848,15119.0
1698673090.1713204,15117.0
1698673090.1917927,15113.0
1698673090.2122653,15110.0
1698673090.2327375,15110.0
1698673090.25321,15116.0
1698673090.2736819,15114.0
1698673090.2941544,15117.0
1698673090.314627,15111.0
1698673090.3350992,15113.0
1698673090.3555715,15110.0
1698673090.376044,15115.0
1698673090.3965163,15092.0
1698673090.4169884,15116.0
1698673090.437461,15113.0
1698673090.4579332,15109.0
1698673090.4784057,15110.0
1698673090.498878,15109.0
1698673090.5193503,15108.0
1698673090.5398228,15111.0
1698673090.560295,15088.0
1698673090.5807672,15111.0
1698673090.6012394,15102.0
1698673090.6217122,15109.0
1698673090.6421845,15108.0
1698673090.6626568,15114.0
1698673090.683129,15110.0
1698673090.7036016,15110.0
1698673090.724074,15109.0
1698673090.744546,15109.0
1698673090.7650185,15112.0
1698673090.785491,15113.0
1698673090.8059633,15113.0
1698673090.8264356,15115.0
1698673090.8469079,15116.0
1698673090.8673804,15113.0
1698673090.8878522,15121.0
1698673090.908325,15121.0
1698673090.9287972,15120.0
1698673090.9492698,15121.0
1698673090.969742,15124.0
1698673090.9902143,15124.0
1698673091.0106869,15124.0
1698673091.0311592,15125.0
1698673091.0516312,15128.0
1698673091.0721037,15131.0
1698673091.0925763,15136.0
1698673091.1130486,15137.0
1698673091.1335208,15141.0
1698673091.1539931,15142.0
1698673091.1744657,15143.0
1698673091.194938,15125.0
1698673091.2154102,15146.0
1698673091.2358825,15145.0
1698673091.256355,15142.0
1698673091.2768273,15152.0
1698673091.2972996,15155.0
1698673091.317772,15157.0
1698673091.3382444,15152.0
1698673091.3587165,15143.0
1698673091.379189,15147.0
1698673091.3996613,15150.0
1698673091.4201338,15155.0
1698673091.4406059,15153.0
1698673091.4610784,15151.0
1698673091.4815507,15153.0
1698673091.5020232,15152.0
1698673091.5224953,15154.0
1698673091.5429678,15150.0
1698673091.56344,15149.0
1698673091.5839126,15153.0
1698673091.6043847,15146.0
1698673091.6248572,15143.0
1698673091.6453295,15144.0
1698673091.665802,15145.0
1698673091.686274,15125.0
1698673091.7067466,15125.0
1698673091.727219,15141.0
1698673091.7476914,15133.0
1698673091.7681637,15135.0
1698673091.788636,15138.0
1698673091.8091085,15131.0
1698673091.8295805,15132.0
1698673091.850053,15111.0
1698673091.8705254,15134.0
1698673091.890998,15117.0
1698673091.91147,15142.0
1698673091.9319425,15147.0
1698673091.9524148,15145.0
1698673091.9728873,15142.0
1698673091.9933593,15145.0
1698673092.0138319,15142.0
1698673092.0343041,15148.0
1698673092.0547767,15151.0
1698673092.0752487,15149.0
1698673092.0957212,15144.0
1698673092.1161935,15125.0
1698673092.136666,15153.0
1698673092.157138,15153.0
1698673092.1776106,15156.0
1698673092.198083,15154.0
1698673092.2185555,15156.0
1698673092.2390275,15135.0
1698673092.2595,15159.0
1698673092.2799723,15151.0
1698673092.3004446,15155.0
1698673092.320917,15160.0
1698673092.3413894,15160.0
1698673092.3618617,15163.0
1698673092.382334,15160.0
1698673092.4028063,15159.0
1698673092.4232788,15159.0
1698673092.4437513,15140.0
1698673092.4642234,15160.0
1698673092.484696,15143.0
1698673092.5051682,15163.0
1698673092.5256407,15161.0
1698673092.5461128,15166.0
1698673092.5665853,15171.0
1698673092.5870576,15172.0
1698673092.60753,15169.0
1698673092.6280022,15166.0
1698673092.6484747,15167.0
1698673092.668947,15145.0
1698673092.6894195,15157.0
1698673092.7098916,15167.0
1698673092.730364,15168.0
1698673092.7508364,15172.0
1698673092.7713087,15146.0
1698673092.791781,15165.0
1698673092.8122535,15167.0
1698673092.8327258,15167.0
1698673092.853198,15161.0
1698673092.8736703,15162.0
1698673092.8941429,15144.0
1698673092.9146152,15160.0
1698673092.9350874,15164.0
1698673092.9555597,15162.0
1698673092.9760323,15161.0
1698673092.9965045,15166.0
1698673093.0169768,15159.0
1698673093.0374491,15158.0
1698673093.0579216,15157.0
1698673093.078394,15151.0
1698673093.0988662,15152.0
1698673093.1193385,15150.0
1698673093.139811,15152.0
1698673093.1602836,15151.0
1698673093.1807556,15152.0
1698673093.2012281,15154.0
1698673093.2217004,15151.0
1698673093.2421727,15157.0
1698673093.262645,15158.0
1698673093.2831175,15163.0
1698673093.3035898,15138.0
1698673093.324062,15160.0
1698673093.3445344,15159.0
1698673093.365007,15160.0
1698673093.3854792,15166.0
1698673093.4059515,15169.0
1698673093.4264238,15165.0
1698673093.4468963,15170.0
1698673093.4673688,15171.0
1698673093.487841,15174.0
1698673093.5083132,15173.0
1698673093.5287857,15177.0
1698673093.549258,15179.0
1698673093.5697303,15180.0
1698673093.5902026,15178.0
1698673093.610675,15183.0
1698673093.6311476,15186.0
1698673093.6516197,15190.0
1698673093.672092,15196.0
1698673093.6925645,15192.0
1698673093.7130365,15192.0
1698673093.733509,15187.0
1698673093.7539814,15185.0
1698673093.774454,15191.0
1698673093.794926,15199.0
1698673093.8153985,15204.0
1698673093.8358707,15204.0
1698673093.8563433,15196.0
1698673093.8768153,15193.0
1698673093.8972878,15197.0
1698673093.9177606,15196.0
1698673093.938233,15198.0
1698673093.958705,15195.0
1698673093.9791772,15195.0
1698673093.9996498,15193.0
1698673094.020122,15189.0
1698673094.0405943,15188.0
1698673094.0610669,15188.0
1698673094.0815392,15185.0
1698673094.1020117,15188.0
1698673094.1224837,15180.0
1698673094.142956,15180.0
1698673094.1634285,15154.0
1698673094.1839008,15174.0
1698673094.2043731,15174.0
1698673094.2248456,15179.0
1698673094.2453182,15177.0
1698673094.26579,15174.0
1698673094.2862625,15171.0
1698673094.3067348,15172.0
1698673094.3272073,15172.0
1698673094.3476794,15176.0
1698673094.3681521,15154.0
1698673094.3886244,15176.0
1698673094.4090967,15181.0
1698673094.4295688,15185.0
1698673094.4500413,15186.0
1698673094.4705136,15181.0
1698673094.490986,15164.0
1698673094.5114584,15191.0
1698673094.531931,15193.0
1698673094.552403,15190.0
1698673094.5728755,15188.0
1698673094.5933475,15185.0
1698673094.61382,15181.0
1698673094.6342924,15190.0
1698673094.654765,15191.0
1698673094.6752372,15189.0
1698673094.6957097,15193.0
1698673094.716182,15192.0
1698673094.736654,15195.0
1698673094.7571266,15196.0
1698673094.7775989,15198.0
1698673094.7980714,15199.0
1698673094.8185437,15201.0
1698673094.8390162,15199.0
1698673094.8594882,15196.0
1698673094.8799608,15175.0
1698673094.9004328,15195.0
1698673094.9209054,15175.0
1698673094.9413776,15194.0
1698673094.9618502,15200.0
1698673094.9823225,15195.0
1698673095.002795,15197.0
1698673095.023267,15195.0
1698673095.0437396,15194.0
1698673095.0642116,15199.0
1698673095.0846841,15194.0
1698673095.1051564,15197.0
1698673095.125629,15200.0
1698673095.146101,15184.0
1698673095.1665735,15211.0
1698673095.1870458,15205.0
1698673095.207518,15203.0
1698673095.2279904,15181.0
1698673095.248463,15202.0
1698673095.2689352,15201.0
1698673095.2894077,15201.0
1698673095.3098798,15196.0
1698673095.3303523,15193.0
1698673095.3508246,15198.0
1698673095.371297,15209.0
1698673095.3917692,15210.0
1698673095.4122417,15207.0
1698673095.4327142,15202.0
1698673095.4531863,15203.0
1698673095.4736588,15207.0
1698673095.494131,15210.0
1698673095.5146036,15209.0
1698673095.5350757,15186.0
1698673095.5555482,15181.0
1698673095.5760205,15181.0
1698673095.596493,15201.0
1698673095.616965,15204.0
1698673095.6374376,15206.0
1698673095.6579099,15205.0
1698673095.6783822,15184.0
1698673095.6988544,15196.0
1698673095.719327,15196.0
1698673095.7397993,15198.0
1698673095.7602715,15174.0
1698673095.7807438,15191.0
1698673095.8012164,15193.0
1698673095.8216887,15194.0
1698673095.842161,15201.0
1698673095.8626332,15203.0
1698673095.8831058,15205.0
1698673095.9035778,15202.0
1698673095.9240503,15202.0
1698673095.9445226,15200.0
1698673095.9649951,15197.0
1698673095.9854674,15176.0
1698673096.0059397,15199.0
1698673096.026412,15196.0
1698673096.0468845,15198.0
1698673096.0673568,15202.0
1698673096.087829,15201.0
1698673096.1083014,15204.0
1698673096.128774,15199.0
1698673096.149246,15195.0
1698673096.1697185,15198.0
1698673096.190191,15197.0
1698673096.210663,15203.0
1698673096.2311356,15200.0
1698673096.251608,15202.0
1698673096.2720804,15200.0
1698673096.2925527,15185.0
1698673096.313025,15210.0
1698673096.3334973,15209.0
1698673096.3539696,15214.0
1698673096.3744419,15213.0
1698673096.3949144,15210.0
1698673096.4153867,15209.0
1698673096.4358592,15211.0
1698673096.4563315,15213.0
1698673096.4768038,15216.0
1698673096.4972758,15211.0
1698673096.5177484,15212.0
1698673096.538221,15208.0
1698673096.5586932,15206.0
1698673096.5791655,15212.0
1698673096.599638,15216.0
1698673096.62011,15217.0
1698673096.6405826,15215.0
1698673096.6610548,15219.0
1698673096.6815271,15223.0
1698673096.7019994,15229.0
1698673096.722472,15231.0
1698673096.7429442,15229.0
1698673096.7634168,15225.0
1698673096.7838888,15220.0
1698673096.804361,15223.0
1698673096.8248334,15220.0
1698673096.8453062,15228.0
1698673096.8657782,15223.0
1698673096.8862507,15218.0
1698673096.9067233,15215.0
1698673096.9271955,15196.0
1698673096.9476676,15223.0
1698673096.96814,15221.0
1698673096.9886124,15216.0
1698673097.009085,15214.0
1698673097.0295572,15221.0
1698673097.0500295,15216.0
1698673097.070502,15217.0
1698673097.090974,15219.0
1698673097.1114464,15219.0
1698673097.131919,15224.0
1698673097.1523914,15229.0
1698673097.1728635,15226.0
1698673097.193336,15226.0
1698673097.2138083,15230.0
1698673097.2342808,15230.0
1698673097.2547529,15205.0
1698673097.2752252,15220.0
1698673097.2956977,15205.0
1698673097.3161702,15223.0
1698673097.3366423,15222.0
1698673097.3571148,15224.0
1698673097.377587,15228.0
1698673097.3980596,15228.0
1698673097.4185314,15227.0
1698673097.4390042,15230.0
1698673097.4594765,15226.0
1698673097.479949,15221.0
1698673097.500421,15223.0
1698673097.5208936,15224.0
1698673097.5413659,15226.0
1698673097.5618384,15229.0
1698673097.5823102,15231.0
1698673097.602783,15231.0
1698673097.6232553,15231.0
1698673097.6437275,15231.0
1698673097.6642,15234.0
1698673097.6846724,15240.0
1698673097.705145,15233.0
1698673097.725617,15213.0
1698673097.7460895,15234.0
1698673097.7665617,15239.0
1698673097.7870343,15241.0
1698673097.8075063,15240.0
1698673097.8279788,15234.0
1698673097.8484511,15216.0
1698673097.8689237,15238.0
1698673097.8893957,15243.0
1698673097.9098682,15244.0
1698673097.9303405,15239.0
1698673097.950813,15212.0
1698673097.971285,15233.0
1698673097.9917576,15239.0
1698673098.01223,15241.0
1698673098.0327024,15240.0
1698673098.0531745,15237.0
1698673098.073647,15236.0
1698673098.0941193,15233.0
1698673098.1145916,15229.0
1698673098.135064,15215.0
1698673098.1555364,15232.0
1698673098.1760087,15227.0
1698673098.196481,15230.0
1698673098.2169533,15230.0
1698673098.2374258,15229.0
1698673098.257898,15232.0
1698673098.2783704,15225.0
1698673098.2988427,15201.0
1698673098.3193152,15218.0
1698673098.3397875,15215.0
1698673098.3602598,15213.0
1698673098.380732,15208.0
1698673098.4012046,15211.0
1698673098.421677,15219.0
1698673098.4421492,15221.0
1698673098.4626217,15223.0
1698673098.483094,15221.0
1698673098.5035665,15219.0
1698673098.5240386,15217.0
1698673098.544511,15212.0
1698673098.5649834,15217.0
1698673098.5854557,15219.0
1698673098.605928,15223.0
1698673098.6264005,15221.0
1698673098.6468728,15226.0
1698673098.667345,15228.0
1698673098.6878173,15224.0
1698673098.7082899,15228.0
1698673098.7287621,15229.0
1698673098.7492344,15230.0
1698673098.7697067,15237.0
1698673098.7901793,15238.0
1698673098.8106515,15234.0
1698673098.8311238,15236.0
1698673098.851596,15238.0
1698673098.8720686,15239.0
1698673098.892541,15236.0
1698673098.9130132,15241.0
1698673098.9334855,15236.0
1698673098.953958,15236.0
1698673098.9744303,15241.0
1698673098.9949026,15241.0
1698673099.015375,15237.0
1698673099.0358474,15241.0
1698673099.0563195,15236.0
1698673099.076792,15238.0
1698673099.0972643,15236.0
1698673099.1177368,15235.0
1698673099.1382089,15230.0
1698673099.1586814,15236.0
1698673099.179154,15234.0
1698673099.1996262,15231.0
1698673099.2200985,15229.0
1698673099.2405708,15228.0
1698673099.2610433,15227.0
1698673099.2815156,15227.0
1698673099.301988,15219.0
1698673099.3224602,15217.0
1698673099.3429327,15214.0
1698673099.363405,15212.0
1698673099.3838773,15213.0
1698673099.4043496,15215.0
1698673099.424822,15210.0
1698673099.4452944,15215.0
1698673099.4657667,15215.0
1698673099.486239,15222.0
1698673099.5067115,15224.0
1698673099.5271835,15226.0
1698673099.547656,15228.0
1698673099.5681283,15236.0
1698673099.5886009,15236.0
1698673099.609073,15236.0
1698673099.6295455,15238.0
1698673099.6500177,15241.0
1698673099.6704903,15245.0
1698673099.6909623,15246.0
1698673099.7114348,15246.0
1698673099.7319071,15247.0
1698673099.7523797,15248.0
1698673099.7728517,15245.0
1698673099.7933242,15247.0
1698673099.8137965,15244.0
1698673099.834269,15223.0
1698673099.854741,15243.0
1698673099.8752136,15246.0
1698673099.8956861,15252.0
1698673099.9161584,15252.0
1698673099.9366307,15251.0
1698673099.957103,15253.0
1698673099.9775755,15248.0
1698673099.9980476,15250.0
1698673100.01852,15254.0
1698673100.0389924,15252.0
1698673100.059465,15229.0
1698673100.079937,15245.0
1698673100.1004095,15246.0
1698673100.1208818,15229.0
1698673100.1413543,15250.0
1698673100.1618264,15251.0
1698673100.182299,15252.0
1698673100.2027712,15256.0
1698673100.2232437,15256.0
1698673100.2437158,15257.0
1698673100.2641883,15260.0
1698673100.2846606,15257.0
1698673100.305133,15255.0
1698673100.3256052,15257.0
1698673100.3460777,15259.0
1698673100.36655,15260.0
1698673100.3870225,15269.0
1698673100.4074945,15261.0
1698673100.427967,15237.0
1698673100.4484396,15257.0
1698673100.4689116,15263.0
1698673100.489384,15264.0
1698673100.5098565,15262.0
1698673100.5303288,15241.0
1698673100.550801,15260.0
1698673100.5712733,15264.0
1698673100.5917459,15266.0
1698673100.6122186,15265.0
1698673100.6326904,15261.0
1698673100.653163,15262.0
1698673100.6736352,15262.0
1698673100.6941078,15264.0
1698673100.7145798,15265.0
1698673100.7350523,15243.0
1698673100.7555249,15261.0
1698673100.7759972,15257.0
1698673100.7964692,15256.0
1698673100.8169417,15255.0
1698673100.837414,15257.0
1698673100.8578866,15257.0
1698673100.8783586,15259.0
1698673100.8988311,15262.0
1698673100.9193037,15260.0
1698673100.939776,15252.0
1698673100.960248,15254.0
1698673100.9807205,15249.0
1698673101.0011928,15249.0
1698673101.021665,15252.0
1698673101.0421376,15252.0
1698673101.0626101,15253.0
1698673101.0830824,15251.0
1698673101.1035545,15255.0
1698673101.1240268,15255.0
1698673101.1444993,15255.0
1698673101.1649716,15253.0
1698673101.1854439,15249.0
1698673101.2059164,15228.0
1698673101.226389,15251.0
1698673101.246861,15252.0
1698673101.2673333,15257.0
1698673101.2878056,15252.0
1698673101.308278,15255.0
1698673101.3287504,15255.0
1698673101.349223,15255.0
1698673101.3696952,15253.0
1698673101.3901675,15258.0
1698673101.41064,15257.0
1698673101.431112,15260.0
1698673101.4515846,15260.0
1698673101.4720569,15265.0
1698673101.4925292,15244.0
1698673101.5130017,15272.0
1698673101.5334742,15278.0
1698673101.5539463,15277.0
1698673101.5744185,15276.0
1698673101.5948908,15270.0
1698673101.6153634,15269.0
1698673101.6358356,15267.0
1698673101.6563082,15273.0
1698673101.6767805,15281.0
1698673101.6972528,15283.0
1698673101.717725,15279.0
1698673101.7381973,15275.0
1698673101.7586696,15272.0
1698673101.7791421,15268.0
1698673101.7996144,15266.0
1698673101.820087,15268.0
1698673101.840559,15262.0
1698673101.8610315,15266.0
1698673101.8815038,15269.0
1698673101.901976,15264.0
1698673101.9224484,15268.0
1698673101.942921,15268.0
1698673101.963393,15270.0
1698673101.9838655,15271.0
1698673102.0043378,15260.0
1698673102.0248103,15259.0
1698673102.0452824,15252.0
1698673102.065755,15253.0
1698673102.0862272,15230.0
1698673102.1066997,15232.0
1698673102.1271722,15246.0
1698673102.1476443,15244.0
1698673102.1681168,15240.0
1698673102.188589,15244.0
1698673102.2090614,15219.0
1698673102.2295337,15247.0
1698673102.2500062,15242.0
1698673102.2704785,15251.0
1698673102.2909508,15256.0
1698673102.311423,15252.0
1698673102.3318956,15258.0
1698673102.3523679,15263.0
1698673102.3728402,15243.0
1698673102.3933125,15239.0
1698673102.413785,15256.0
1698673102.434257,15253.0
1698673102.4547296,15247.0
1698673102.4752018,15248.0
1698673102.4956744,15251.0
1698673102.5161464,15251.0
1698673102.536619,15258.0
1698673102.5570912,15263.0
1698673102.5775638,15255.0
1698673102.5980358,15255.0
1698673102.6185083,15260.0
1698673102.6389806,15260.0
1698673102.6594532,15260.0
1698673102.6799252,15260.0
1698673102.7003977,15261.0
1698673102.72087,15259.0
1698673102.7413423,15261.0
1698673102.7618146,15264.0
1698673102.7822871,15266.0
1698673102.8027594,15273.0
1698673102.823232,15268.0
1698673102.843704,15269.0
1698673102.8641765,15271.0
1698673102.884649,15269.0
1698673102.905121,15265.0
1698673102.9255936,15269.0
1698673102.946066,15273.0
1698673102.9665384,15276.0
1698673102.9870105,15275.0
1698673103.007483,15272.0
1698673103.027955,15274.0
1698673103.0484276,15274.0
1698673103.0688999,15275.0
1698673103.0893724,15269.0
1698673103.1098447,15272.0
1698673103.1303172,15273.0
1698673103.1507893,15277.0
1698673103.1712618,15276.0
1698673103.1917338,15278.0
1698673103.2122064,15279.0
1698673103.2326787,15277.0
1698673103.2531512,15272.0
1698673103.2736235,15269.0
1698673103.294096,15272.0
1698673103.314568,15270.0
1698673103.3350403,15273.0
1698673103.3555129,15271.0
1698673103.3759851,15267.0
1698673103.3964574,15270.0
1698673103.41693,15247.0
1698673103.4374022,15270.0
1698673103.4578745,15272.0
1698673103.4783468,15249.0
1698673103.498819,15266.0
1698673103.5192914,15264.0
1698673103.539764,15263.0
1698673103.5602362,15259.0
1698673103.5807087,15264.0
1698673103.6011813,15265.0
1698673103.6216533,15264.0
1698673103.6421256,15243.0
1698673103.662598,15260.0
1698673103.6830707,15264.0
1698673103.7035427,15261.0
1698673103.7240152,15263.0
1698673103.7444875,15247.0
1698673103.76496,15267.0
1698673103.7854319,15271.0
1698673103.8059044,15268.0
1698673103.826377,15269.0
1698673103.8468492,15267.0
1698673103.8673215,15269.0
1698673103.887794,15271.0
1698673103.9082663,15254.0
1698673103.9287384,15272.0
1698673103.949211,15252.0
1698673103.9696832,15250.0
1698673103.9901557,15269.0
1698673104.010628,15276.0
1698673104.0311003,15275.0
1698673104.0515728,15278.0
1698673104.072045,15274.0
1698673104.0925171,15279.0
1698673104.1129894,15276.0
1698673104.1334622,15285.0
1698673104.1539345,15286.0
1698673104.1744068,15268.0
1698673104.194879,15279.0
1698673104.2153516,15279.0
1698673104.2358239,15280.0
1698673104.256296,15279.0
1698673104.2767684,15288.0
1698673104.297241,15293.0
1698673104.3177133,15293.0
1698673104.3381855,15274.0
1698673104.358658,15287.0
1698673104.3791304,15277.0
1698673104.3996024,15278.0
1698673104.420075,15280.0
1698673104.4405475,15282.0
1698673104.4610198,15277.0
1698673104.481492,15277.0
1698673104.5019643,15280.0
1698673104.5224369,15281.0
1698673104.5429091,15276.0
1698673104.5633812,15253.0
1698673104.5838537,15275.0
1698673104.6043262,15271.0
1698673104.6247985,15267.0
1698673104.6452708,15266.0
1698673104.665743,15265.0
1698673104.6862156,15262.0
1698673104.706688,15263.0
1698673104.7271602,15265.0
1698673104.7476325,15259.0
1698673104.768105,15264.0
1698673104.7885773,15262.0
1698673104.8090496,15263.0
1698673104.829522,15263.0
1698673104.8499944,15264.0
1698673104.8704665,15261.0
1698673104.890939,15248.0
1698673104.9114113,15270.0
1698673104.9318838,15272.0
1698673104.9523559,15271.0
1698673104.9728284,15271.0
1698673104.9933007,15273.0
1698673105.0137732,15275.0
1698673105.0342453,15274.0
1698673105.0547178,15277.0
1698673105.07519,15274.0
1698673105.0956626,15271.0
1698673105.116135,15265.0
1698673105.1366072,15267.0
1698673105.1570797,15252.0
1698673105.177552,15277.0
1698673105.1980243,15275.0
1698673105.2184966,15276.0
1698673105.238969,15271.0
1698673105.2594414,15277.0
1698673105.2799137,15272.0
1698673105.300386,15275.0
1698673105.3208585,15271.0
1698673105.3413305,15275.0
1698673105.361803,15272.0
1698673105.3822753,15273.0
1698673105.4027479,15269.0
1698673105.42322,15282.0
1698673105.4436924,15286.0
1698673105.4641647,15289.0
1698673105.4846373,15282.0
1698673105.5051093,15282.0
1698673105.5255818,15289.0
1698673105.5460541,15289.0
1698673105.5665267,15290.0
1698673105.5869987,15287.0
1698673105.6074712,15281.0
1698673105.6279435,15283.0
1698673105.648416,15288.0
1698673105.668888,15290.0
1698673105.6893606,15283.0
1698673105.709833,15279.0
1698673105.7303054,15279.0
1698673105.7507775,15285.0
1698673105.77125,15287.0
1698673105.7917223,15291.0
1698673105.8121946,15287.0
1698673105.8326669,15263.0
1698673105.8531394,15284.0
1698673105.873612,15285.0
1698673105.894084,15279.0
1698673105.9145565,15284.0
1698673105.9350288,15276.0
1698673105.9555013,15281.0
1698673105.9759734,15279.0
1698673105.996446,15280.0
1698673106.0169182,15281.0
1698673106.0373907,15259.0
1698673106.0578628,15263.0
1698673106.0783353,15282.0
1698673106.0988076,15277.0
1698673106.11928,15275.0
1698673106.1397521,15278.0
1698673106.1602247,15277.0
1698673106.180697,15274.0
1698673106.2011695,15276.0
1698673106.2216415,15281.0
1698673106.242114,15281.0
1698673106.2625864,15279.0
1698673106.2830586,15277.0
1698673106.303531,15278.0
1698673106.3240035,15280.0
1698673106.3444757,15280.0
1698673106.364948,15274.0
1698673106.3854203,15280.0
1698673106.4058928,15273.0
1698673106.4263651,15276.0
1698673106.4468374,15274.0
1698673106.4673097,15275.0
1698673106.4877822,15276.0
1698673106.5082545,15275.0
1698673106.5287268,15276.0
1698673106.549199,15280.0
1698673106.5696716,15280.0
1698673106.5901442,15279.0
1698673106.6106162,15277.0
1698673106.6310887,15280.0
1698673106.651561,15282.0
1698673106.6720335,15288.0
1698673106.6925056,15287.0
1698673106.7129781,15286.0
1698673106.7334504,15288.0
1698673106.7539227,15285.0
1698673106.774395,15290.0
1698673106.7948675,15289.0
1698673106.8153398,15297.0
1698673106.835812,15300.0
1698673106.8562844,15301.0
1698673106.876757,15299.0
1698673106.8972292,15291.0
1698673106.9177015,15294.0
1698673106.9381738,15288.0
1698673106.9586463,15284.0
1698673106.9791188,15286.0
1698673106.9995909,15287.0
1698673107.0200632,15290.0
1698673107.0405357,15288.0
1698673107.061008,15273.0
1698673107.0814803,15294.0
1698673107.1019526,15295.0
1698673107.122425,15294.0
1698673107.1428976,15293.0
1698673107.1633697,15287.0
1698673107.183842,15291.0
1698673107.2043145,15288.0
1698673107.2247865,15282.0
1698673107.245259,15285.0
1698673107.2657313,15280.0
1698673107.286204,15284.0
1698673107.306676,15281.0
1698673107.3271484,15256.0
1698673107.347621,15273.0
1698673107.3680933,15274.0
1698673107.3885655,15273.0
1698673107.4090378,15276.0
1698673107.4295106,15254.0
1698673107.449983,15254.0
1698673107.470455,15262.0
1698673107.4909272,15286.0
1698673107.5113997,15290.0
1698673107.531872,15297.0
1698673107.5523443,15298.0
1698673107.5728168,15291.0
1698673107.5932891,15293.0
1698673107.6137617,15290.0
1698673107.6342337,15279.0
1698673107.654706,15283.0
1698673107.6751785,15284.0
1698673107.6956508,15283.0
1698673107.716123,15282.0
1698673107.7365956,15286.0
1698673107.7570682,15289.0
1698673107.77754,15287.0
1698673107.7980125,15291.0
1698673107.8184848,15292.0
1698673107.8389573,15293.0
1698673107.8594294,15290.0
1698673107.8799021,15288.0
1698673107.9003744,15295.0
1698673107.9208467,15296.0
1698673107.9413188,15297.0
1698673107.9617913,15295.0
1698673107.9822636,15292.0
1698673108.002736,15294.0
1698673108.0232084,15297.0
1698673108.043681,15300.0
1698673108.0641532,15293.0
1698673108.0846255,15291.0
1698673108.1050978,15289.0
1698673108.12557,15293.0
1698673108.1460426,15299.0
1698673108.1665149,15291.0
1698673108.1869872,15292.0
1698673108.2074597,15291.0
1698673108.227932,15288.0
1698673108.248404,15291.0
1698673108.2688766,15293.0
1698673108.2893488,15291.0
1698673108.3098214,15291.0
1698673108.3302937,15291.0
1698673108.3507662,15292.0
1698673108.3712382,15288.0
1698673108.3917108,15284.0
1698673108.4121828,15289.0
1698673108.4326553,15286.0
1698673108.4531276,15290.0
1698673108.4736001,15287.0
1698673108.4940724,15290.0
1698673108.514545,15289.0
1698673108.535017,15280.0
1698673108.5554895,15276.0
1698673108.5759616,15280.0
1698673108.596434,15284.0
1698673108.6169064,15282.0
1698673108.637379,15266.0
1698673108.657851,15286.0
1698673108.6783235,15288.0
1698673108.6987958,15285.0
1698673108.719268,15285.0
1698673108.7397404,15283.0
1698673108.760213,15283.0
1698673108.7806852,15285.0
1698673108.8011577,15284.0
1698673108.82163,15265.0
1698673108.8421023,15287.0
1698673108.8625748,15284.0
1698673108.8830469,15286.0
1698673108.9035194,15287.0
1698673108.9239917,15290.0
1698673108.9444642,15287.0
1698673108.9649363,15282.0
1698673108.9854088,15289.0
1698673109.005881,15291.0
1698673109.0263536,15292.0
1698673109.0468256,15291.0
1698673109.0672982,15295.0
1698673109.0877705,15299.0
1698673109.108243,15292.0
1698673109.128715,15296.0
1698673109.1491876,15298.0
1698673109.1696599,15297.0
1698673109.1901321,15304.0
1698673109.2106044,15307.0
1698673109.231077,15312.0
1698673109.2515492,15312.0
1698673109.2720215,15311.0
1698673109.2924938,15306.0
1698673109.3129663,15296.0
1698673109.3334386,15299.0
1698673109.353911,15299.0
1698673109.3743832,15297.0
1698673109.3948557,15300.0
1698673109.4153278,15293.0
1698673109.4358003,15300.0
1698673109.4562726,15278.0
1698673109.4767451,15294.0
1698673109.4972174,15290.0
1698673109.5176897,15284.0
1698673109.538162,15281.0
1698673109.5586345,15283.0
1698673109.579107,15261.0
1698673109.599579,15287.0
1698673109.6200516,15290.0
1698673109.640524,15286.0
1698673109.6609962,15283.0
1698673109.6814685,15281.0
1698673109.701941,15281.0
1698673109.722413,15284.0
1698673109.7428856,15283.0
1698673109.7633579,15279.0
1698673109.7838304,15282.0
1698673109.8043027,15275.0
1698673109.824775,15281.0
1698673109.8452473,15283.0
1698673109.8657196,15286.0
1698673109.8861918,15288.0
1698673109.9066644,15289.0
1698673109.9271367,15292.0
1698673109.9476092,15292.0
1698673109.9680815,15291.0
1698673109.9885538,15290.0
1698673110.0090258,15289.0
1698673110.0294983,15289.0
1698673110.0499709,15287.0
1698673110.0704432,15271.0
1698673110.0909154,15288.0
1698673110.111388,15283.0
1698673110.13186,15284.0
1698673110.1523325,15287.0
1698673110.1728048,15290.0
1698673110.1932771,15292.0
1698673110.2137494,15293.0
1698673110.234222,15294.0
1698673110.2546942,15290.0
1698673110.2751667,15288.0
1698673110.2956388,15293.0
1698673110.316111,15292.0
1698673110.3365836,15292.0
1698673110.3570561,15295.0
1698673110.3775284,15295.0
1698673110.3980007,15295.0
1698673110.4184732,15298.0
1698673110.4389455,15299.0
1698673110.4594176,15299.0
1698673110.4798899,15304.0
1698673110.5003624,15302.0
1698673110.520835,15302.0
1698673110.5413072,15305.0
1698673110.5617795,15309.0
1698673110.582252,15306.0
1698673110.602724,15306.0
1698673110.6231964,15305.0
1698673110.643669,15305.0
1698673110.6641414,15302.0
1698673110.6846135,15304.0
1698673110.705086,15304.0
1698673110.7255583,15300.0
1698673110.7460308,15301.0
1698673110.7665029,15299.0
1698673110.7869751,15298.0
1698673110.8074477,15298.0
1698673110.8279202,15296.0
1698673110.8483922,15298.0
1698673110.8688648,15298.0
1698673110.889337,15273.0
1698673110.9098096,15297.0
1698673110.9302814,15275.0
1698673110.9507542,15295.0
1698673110.9712265,15296.0
1698673110.991699,15292.0
1698673111.012171,15289.0
1698673111.0326436,15288.0
1698673111.053116,15285.0
1698673111.0735884,15266.0
1698673111.0940604,15292.0
1698673111.114533,15293.0
1698673111.1350055,15295.0
1698673111.1554775,15297.0
1698673111.17595,15295.0
1698673111.1964223,15297.0
1698673111.2168949,15300.0
1698673111.237367,15297.0
1698673111.2578394,15298.0
1698673111.2783117,15296.0
1698673111.2987843,15299.0
1698673111.3192563,15302.0
1698673111.3397288,15303.0
1698673111.3602011,15303.0
1698673111.3806736,15283.0
1698673111.4011457,15283.0
1698673111.4216182,15307.0
1698673111.4420905,15312.0
1698673111.462563,15318.0
1698673111.483035,15313.0
1698673111.5035076,15289.0
1698673111.52398,15310.0
1698673111.5444524,15315.0
1698673111.5649245,15297.0
1698673111.585397,15319.0
1698673111.6058693,15320.0
1698673111.6263416,15318.0
1698673111.6468139,15312.0
1698673111.6672864,15287.0
1698673111.6877587,15310.0
1698673111.708231,15308.0
1698673111.7287033,15309.0
1698673111.7491758,15307.0
1698673111.769648,15308.0
1698673111.7901204,15306.0
1698673111.810593,15309.0
1698673111.8310652,15308.0
1698673111.8515377,15306.0
1698673111.8720098,15308.0
1698673111.8924823,15302.0
1698673111.9129546,15303.0
1698673111.933427,15299.0
1698673111.9538991,15297.0
1698673111.9743717,15295.0
1698673111.994844,15296.0
1698673112.0153165,15296.0
1698673112.0357885,15296.0
1698673112.056261,15294.0
1698673112.0767334,15291.0
1698673112.0972056,15293.0
1698673112.117678,15294.0
1698673112.1381505,15297.0
1698673112.1586227,15298.0
1698673112.179095,15294.0
1698673112.1995673,15296.0
1698673112.2200398,15300.0
1698673112.2405121,15298.0
1698673112.2609844,15301.0
1698673112.2814567,15297.0
1698673112.3019292,15299.0
1698673112.3224015,15299.0
1698673112.3428738,15302.0
1698673112.363346,15306.0
1698673112.3838186,15306.0
1698673112.404291,15302.0
1698673112.4247632,15303.0
1698673112.4452355,15302.0
1698673112.465708,15305.0
1698673112.4861803,15301.0
1698673112.5066526,15303.0
1698673112.527125,15283.0
1698673112.5475974,15308.0
1698673112.5680697,15286.0
1698673112.588542,15312.0
1698673112.6090145,15311.0
1698673112.6294868,15311.0
1698673112.649959,15306.0
1698673112.6704314,15284.0
1698673112.690904,15308.0
1698673112.7113762,15311.0
1698673112.7318485,15308.0
1698673112.7523208,15310.0
1698673112.7727933,15289.0
1698673112.7932656,15306.0
1698673112.8137379,15311.0
1698673112.8342102,15289.0
1698673112.8546827,15316.0
1698673112.875155,15297.0
1698673112.8956273,15317.0
1698673112.9160995,15315.0
1698673112.936572,15318.0
1698673112.9570444,15316.0
1698673112.9775167,15313.0
1698673112.997989,15324.0
1698673113.0184615,15324.0
1698673113.0389335,15322.0
1698673113.059406,15323.0
1698673113.0798783,15320.0
1698673113.1003509,15321.0
1698673113.120823,15302.0
1698673113.1412954,15328.0
1698673113.1617677,15321.0
1698673113.1822402,15318.0
1698673113.2027123,15311.0
1698673113.2231848,15317.0
1698673113.243657,15315.0
1698673113.2641296,15312.0
1698673113.2846017,15310.0
1698673113.3050742,15309.0
1698673113.3255467,15310.0
1698673113.346019,15311.0
1698673113.3664913,15307.0
1698673113.3869636,15308.0
1698673113.4074361,15313.0
1698673113.4279084,15309.0
1698673113.4483807,15314.0
1698673113.468853,15311.0
1698673113.4893255,15312.0
1698673113.5097976,15314.0
1698673113.53027,15308.0
1698673113.5507424,15304.0
1698673113.571215,15300.0
1698673113.591687,15305.0
1698673113.6121595,15310.0
1698673113.6326318,15314.0
1698673113.6531043,15291.0
1698673113.6735764,15295.0
1698673113.694049,15294.0
1698673113.7145212,15313.0
1698673113.7349937,15313.0
1698673113.7554657,15316.0
1698673113.7759383,15314.0
1698673113.7964106,15311.0
1698673113.816883,15291.0
1698673113.8373551,15314.0
1698673113.8578277,15291.0
1698673113.8783,15311.0
1698673113.8987725,15309.0
1698673113.9192445,15315.0
1698673113.939717,15314.0
1698673113.9601896,15299.0
1698673113.9806616,15320.0
1698673114.001134,15321.0
1698673114.0216064,15319.0
1698673114.042079,15323.0
1698673114.062551,15323.0
1698673114.0830235,15326.0
1698673114.1034958,15330.0
1698673114.1239686,15331.0
1698673114.1444404,15331.0
1698673114.164913,15331.0
1698673114.1853852,15330.0
1698673114.2058578,15334.0
1698673114.2263298,15327.0
1698673114.2468023,15325.0
1698673114.2672749,15323.0
1698673114.2877471,15326.0
1698673114.3082192,15323.0
1698673114.3286917,15323.0
1698673114.349164,15319.0
1698673114.3696365,15324.0
1698673114.3901086,15324.0
1698673114.410581,15323.0
1698673114.4310536,15319.0
1698673114.451526,15295.0
1698673114.471998,15313.0
1698673114.4924705,15314.0
1698673114.5129428,15311.0
1698673114.533415,15307.0
1698673114.5538876,15287.0
1698673114.5743601,15306.0
1698673114.5948324,15308.0
1698673114.6153045,15309.0
1698673114.6357768,15305.0
1698673114.6562493,15302.0
1698673114.6767216,15300.0
1698673114.6971939,15302.0
1698673114.7176664,15308.0
1698673114.738139,15315.0
1698673114.7586112,15295.0
1698673114.7790833,15310.0
1698673114.7995558,15312.0
1698673114.820028,15314.0
1698673114.8405006,15317.0
1698673114.860973,15317.0
1698673114.8814452,15318.0
1698673114.9019175,15325.0
1698673114.92239,15322.0
1698673114.942862,15322.0
1698673114.9633346,15316.0
1698673114.9838068,15316.0
1698673115.0042791,15316.0
1698673115.0247517,15316.0
1698673115.0452242,15295.0
1698673115.0656962,15317.0
1698673115.0861685,15321.0
1698673115.1066408,15318.0
1698673115.1271133,15319.0
1698673115.1475856,15296.0
1698673115.1680582,15319.0
1698673115.1885304,15322.0
1698673115.2090027,15328.0
1698673115.229475,15327.0
1698673115.2499473,15323.0
1698673115.2704196,15301.0
1698673115.2908921,15322.0
1698673115.3113644,15306.0
1698673115.331837,15327.0
1698673115.352309,15324.0
1698673115.3727815,15303.0
1698673115.3932538,15326.0
1698673115.413726,15330.0
1698673115.4341984,15329.0
1698673115.454671,15338.0
1698673115.475143,15330.0
1698673115.4956155,15321.0
1698673115.516088,15300.0
1698673115.5365603,15321.0
1698673115.5570326,15324.0
1698673115.5775049,15306.0
1698673115.5979774,15324.0
1698673115.6184497,15327.0
1698673115.6389222,15321.0
1698673115.6593943,15325.0
1698673115.6798668,15325.0
1698673115.700339,15329.0
1698673115.7208114,15323.0
1698673115.7412837,15324.0
1698673115.7617562,15323.0
1698673115.7822285,15317.0
1698673115.8027008,15317.0
1698673115.823173,15319.0
1698673115.8436456,15323.0
1698673115.8641179,15317.0
1698673115.8845901,15320.0
1698673115.9050624,15321.0
1698673115.925535,15320.0
1698673115.946007,15312.0
1698673115.9664795,15306.0
1698673115.9869518,15305.0
1698673116.0074244,15308.0
1698673116.0278964,15310.0
1698673116.048369,15309.0
1698673116.0688412,15312.0
1698673116.0893137,15312.0
1698673116.1097858,15315.0
1698673116.1302583,15313.0
1698673116.1507306,15314.0
1698673116.1712031,15312.0
1698673116.1916752,15314.0
1698673116.2121477,15311.0
1698673116.23262,15318.0
1698673116.2530923,15318.0
1698673116.2735648,15318.0
1698673116.294037,15318.0
1698673116.3145096,15316.0
1698673116.334982,15324.0
1698673116.3554542,15325.0
1698673116.3759265,15320.0
1698673116.396399,15321.0
1698673116.416871,15318.0
1698673116.4373436,15316.0
1698673116.457816,15319.0
1698673116.4782884,15320.0
1698673116.4987605,15327.0
1698673116.519233,15322.0
1698673116.539705,15324.0
1698673116.5601776,15321.0
1698673116.5806499,15323.0
1698673116.6011224,15322.0
1698673116.6215947,15330.0
1698673116.6420672,15340.0
1698673116.6625392,15336.0
1698673116.6830118,15329.0
1698673116.7034838,15327.0
1698673116.7239563,15325.0
1698673116.7444286,15329.0
1698673116.7649012,15327.0
1698673116.7853734,15324.0
1698673116.805846,15329.0
1698673116.826318,15327.0
1698673116.8467903,15305.0
1698673116.8672628,15328.0
1698673116.8877351,15325.0
1698673116.9082074,15328.0
1698673116.92868,15297.0
1698673116.9491522,15317.0
1698673116.9696245,15316.0
1698673116.9900968,15293.0
1698673117.010569,15294.0
1698673117.0310416,15312.0
1698673117.051514,15312.0
1698673117.0719864,15311.0
1698673117.0924587,15307.0
1698673117.1129313,15294.0
1698673117.1334033,15314.0
1698673117.1538756,15318.0
1698673117.1743479,15314.0
1698673117.1948206,15312.0
1698673117.2152927,15316.0
1698673117.2357652,15322.0
1698673117.2562375,15325.0
1698673117.27671,15322.0
1698673117.2971818,15326.0
1698673117.3176544,15324.0
1698673117.338127,15322.0
1698673117.3585992,15324.0
1698673117.3790715,15322.0
1698673117.399544,15320.0
1698673117.4200163,15321.0
1698673117.4404883,15319.0
1698673117.4609609,15314.0
1698673117.4814332,15316.0
1698673117.5019057,15318.0
1698673117.522378,15318.0
1698673117.5428503,15322.0
1698673117.5633228,15322.0
1698673117.583795,15319.0
1698673117.6042671,15322.0
1698673117.6247394,15323.0
1698673117.6452122,15329.0
1698673117.6656845,15326.0
1698673117.6861567,15325.0
1698673117.706629,15330.0
1698673117.7271016,15333.0
1698673117.747574,15331.0
1698673117.768046,15326.0
1698673117.7885187,15327.0
1698673117.808991,15332.0
1698673117.8294635,15333.0
1698673117.8499355,15336.0
1698673117.870408,15328.0
1698673117.8908803,15325.0
1698673117.9113524,15332.0
1698673117.931825,15336.0
1698673117.9522974,15339.0
1698673117.9727697,15327.0
1698673117.993242,15329.0
1698673118.0137143,15320.0
1698673118.0341868,15325.0
1698673118.0546591,15329.0
1698673118.0751312,15332.0
1698673118.0956037,15327.0
1698673118.1160762,15327.0
1698673118.1365485,15322.0
1698673118.1570208,15321.0
1698673118.177493,15304.0
1698673118.1979656,15306.0
1698673118.218438,15330.0
1698673118.2389102,15336.0
1698673118.2593825,15336.0
1698673118.279855,15338.0
1698673118.3003273,15340.0
1698673118.3207996,15337.0
1698673118.3412719,15312.0
1698673118.3617444,15288.0
1698673118.3822165,15257.0
1698673118.402689,15293.0
1698673118.4231613,15291.0
1698673118.4436338,15292.0
1698673118.4641058,15292.0
1698673118.4845784,15252.0
1698673118.505051,15226.0
1698673118.5255232,15205.0
1698673118.5459955,15204.0
1698673118.5664678,15194.0
1698673118.5869403,15173.0
1698673118.6074126,15150.0
1698673118.6278849,15118.0
1698673118.6483572,15087.0
1698673118.6688297,15055.0
1698673118.689302,15016.0
1698673118.7097743,14978.0
1698673118.7302465,14952.0
1698673118.750719,14927.0
1698673118.7711914,14907.0
1698673118.7916636,14883.0
1698673118.812136,14865.0
1698673118.8326085,14843.0
1698673118.8530805,14825.0
1698673118.873553,14809.0
1698673118.8940253,14774.0
1698673118.9144979,14774.0
1698673118.93497,14737.0
1698673118.9554424,14738.0
1698673118.9759147,14731.0
1698673118.9963872,14714.0
1698673119.0168593,14695.0
1698673119.0373318,14681.0
1698673119.057804,14665.0
1698673119.0782766,14645.0
1698673119.0987487,14615.0
1698673119.1192212,14582.0
1698673119.1396935,14537.0
1698673119.160166,14494.0
1698673119.180638,14453.0
1698673119.2011106,14409.0
1698673119.221583,14372.0
1698673119.2420554,14334.0
1698673119.2625277,14296.0
1698673119.3034725,14244.0
1698673119.3239446,14228.0
1698673119.344417,14211.0
1698673119.3648894,14191.0
1698673119.385362,14172.0
1698673119.405834,14154.0
1698673119.4263065,14135.0
1698673119.4467788,14122.0
1698673119.4672513,14105.0
1698673119.4877234,14068.0
1698673119.5081959,14077.0
1698673119.5286682,14059.0
1698673119.5491407,14023.0
1698673119.5696127,14026.0
1698673119.5900853,13996.0
1698673119.6105576,13997.0
1698673119.63103,13972.0
1698673119.6515021,13943.0
1698673119.6719747,13901.0
1698673119.692447,13857.0
1698673119.7129195,13809.0
1698673119.7333915,13766.0
1698673119.753864,13722.0
1698673119.7743363,13674.0
1698673119.7948086,13630.0
1698673119.815281,13599.0
1698673119.8357534,13572.0
1698673119.8562257,13544.0
1698673119.876698,13522.0
1698673119.8971703,13497.0
1698673119.9176428,13479.0
1698673119.9381151,13465.0
1698673119.9585874,13425.0
1698673119.9790597,13426.0
1698673119.9995322,13410.0
1698673120.0200047,13391.0
1698673120.0404768,13372.0
1698673120.0609493,13357.0
1698673120.0814216,13333.0
1698673120.1018941,13316.0
1698673120.1223662,13299.0
1698673120.1428387,13277.0
1698673120.163311,13267.0
1698673120.1837835,13250.0
1698673120.2042556,13236.0
1698673120.224728,13210.0
1698673120.2452004,13160.0
1698673120.2656727,13138.0
1698673120.286145,13104.0
1698673120.3066175,13062.0
1698673120.3270898,13005.0
1698673120.347562,12995.0
1698673120.3680344,12969.0
1698673120.388507,12941.0
1698673120.4089792,12923.0
1698673120.4294515,12903.0
1698673120.4499238,12884.0
1698673120.4703963,12877.0
1698673120.4908688,12851.0
1698673120.5113409,12855.0
1698673120.5318131,12851.0
1698673120.5522857,12840.0
1698673120.572758,12834.0
1698673120.5932302,12832.0
1698673120.6137025,12828.0
1698673120.634175,12816.0
1698673120.6546476,12812.0
1698673120.6751196,12806.0
1698673120.695592,12805.0
1698673120.7160645,12802.0
1698673120.7365365,12801.0
1698673120.757009,12798.0
1698673120.7774816,12795.0
1698673120.797954,12790.0
1698673120.8184261,12785.0
1698673120.8388984,12772.0
1698673120.859371,12754.0
1698673120.8798432,12718.0
1698673120.9003155,12713.0
1698673120.9207878,12689.0
1698673120.9412606,12665.0
1698673120.9617329,12642.0
1698673120.982205,12623.0
1698673121.0026772,12609.0
1698673121.0231497,12600.0
1698673121.043622,12570.0
1698673121.0640943,12584.0
1698673121.0845668,12574.0
1698673121.1050391,12575.0
1698673121.1255116,12575.0
1698673121.1459837,12579.0
1698673121.166456,12582.0
1698673121.1869285,12587.0
1698673121.2074008,12592.0
1698673121.227873,12595.0
1698673121.2483456,12600.0
1698673121.2688181,12605.0
1698673121.28929,12603.0
1698673121.3097625,12611.0
1698673121.3302348,12610.0
1698673121.3507073,12612.0
1698673121.3711793,12608.0
1698673121.391652,12606.0
1698673121.4121244,12603.0
1698673121.4325967,12609.0
1698673121.4530687,12626.0
1698673121.4735413,12638.0
1698673121.4940138,12648.0
1698673121.514486,12658.0
1698673121.5349586,12651.0
1698673121.555431,12626.0
1698673121.5759032,12610.0
1698673121.5963755,12606.0
1698673121.6168478,12584.0
1698673121.63732,12549.0
1698673121.6577926,12520.0
1698673121.6782649,12544.0
1698673121.6987371,12542.0
1698673121.7192097,12538.0
1698673121.739682,12526.0
1698673121.760154,12502.0
1698673121.7806265,12476.0
1698673121.8010988,12461.0
1698673121.8215714,12435.0
1698673121.8420436,12455.0
1698673121.8625162,12463.0
1698673121.8829882,12475.0
1698673121.9034607,12478.0
1698673121.9239328,12488.0
1698673121.9444053,12485.0
1698673121.9648776,12510.0
1698673121.9853501,12519.0
1698673122.0058224,12533.0
1698673122.026295,12548.0
1698673122.046767,12565.0
1698673122.0672395,12584.0
1698673122.0877116,12608.0
1698673122.108184,12638.0
1698673122.1286564,12670.0
1698673122.149129,12710.0
1698673122.169601,12754.0
1698673122.1900735,12789.0
1698673122.210546,12820.0
1698673122.231018,12848.0
1698673122.2514906,12888.0
1698673122.271963,12918.0
1698673122.2924354,12923.0
1698673122.3129077,12918.0
1698673122.33338,12898.0
1698673122.3538523,12869.0
1698673122.3743248,12824.0
1698673122.3947968,12800.0
1698673122.4152694,12758.0
1698673122.4357417,12747.0
1698673122.4562142,12733.0
1698673122.4766862,12712.0
1698673122.4971588,12695.0
1698673122.517631,12678.0
1698673122.5381036,12664.0
1698673122.5585756,12641.0
1698673122.5790482,12628.0
1698673122.5995204,12605.0
1698673122.619993,12586.0
1698673122.640465,12571.0
1698673122.6609375,12542.0
1698673122.6814098,12551.0
1698673122.7018821,12531.0
1698673122.7223544,12548.0
1698673122.742827,12554.0
1698673122.7632992,12554.0
1698673122.7837715,12564.0
1698673122.8042438,12565.0
1698673122.8247163,12574.0
1698673122.8451886,12578.0
1698673122.865661,12584.0
1698673122.8861332,12583.0
1698673122.9066057,12586.0
1698673122.9270778,12588.0
1698673122.9475503,12588.0
1698673122.9680228,12591.0
1698673122.988495,12594.0
1698673123.0089676,12586.0
1698673123.0294397,12571.0
1698673123.0499122,12552.0
1698673123.0703845,12523.0
1698673123.090857,12487.0
1698673123.111329,12464.0
1698673123.1318016,12459.0
1698673123.152274,12448.0
1698673123.1727462,12438.0
1698673123.1932185,12428.0
1698673123.213691,12425.0
1698673123.234163,12420.0
1698673123.2546356,12426.0
1698673123.2751079,12427.0
1698673123.2955804,12430.0
1698673123.3160527,12435.0
1698673123.336525,12437.0
1698673123.3569973,12439.0
1698673123.3774695,12445.0
1698673123.3979418,12453.0
1698673123.4184144,12458.0
1698673123.4388866,12446.0
1698673123.4593592,12471.0
1698673123.4798315,12479.0
1698673123.5003037,12488.0
1698673123.5207758,12496.0
1698673123.5412483,12503.0
1698673123.5617208,12513.0
1698673123.5821931,12521.0
1698673123.6026654,12525.0
1698673123.623138,12537.0
1698673123.64361,12544.0
1698673123.6640825,12547.0
1698673123.6845548,12548.0
1698673123.705027,12535.0
1698673123.7254996,12517.0
1698673123.745972,12497.0
1698673123.7664444,12485.0
1698673123.7869167,12469.0
1698673123.807389,12456.0
1698673123.827861,12454.0
1698673123.8483336,12457.0
1698673123.8688061,12460.0
1698673123.8892784,12466.0
1698673123.9097507,12469.0
1698673123.9302232,12472.0
1698673123.9506955,12478.0
1698673123.9711676,12476.0
1698673123.9916399,12474.0
