timestamp,ppg
1698923878.0200803,21368.0
1698923878.040576,21371.0
1698923878.0610716,21366.0
1698923878.081567,21370.0
1698923878.102063,21367.0
1698923878.1225586,21363.0
1698923878.1430542,21364.0
1698923878.16355,21361.0
1698923878.1840453,21362.0
1698923878.204541,21355.0
1698923878.2250366,21365.0
1698923878.2455325,21372.0
1698923878.2660282,21365.0
1698923878.2865236,21371.0
1698923878.3070192,21376.0
1698923878.327515,21387.0
1698923878.3480105,21381.0
1698923878.3685064,21383.0
1698923878.3890018,21380.0
1698923878.4094975,21400.0
1698923878.4299932,21400.0
1698923878.4504888,21407.0
1698923878.4709845,21415.0
1698923878.49148,21420.0
1698923878.5119758,21419.0
1698923878.5324714,21424.0
1698923878.552967,21430.0
1698923878.5734627,21428.0
1698923878.5939584,21430.0
1698923878.614454,21424.0
1698923878.6349497,21427.0
1698923878.6554453,21430.0
1698923878.675941,21421.0
1698923878.6964362,21411.0
1698923878.7169318,21414.0
1698923878.7374275,21421.0
1698923878.7579236,21419.0
1698923878.7784193,21423.0
1698923878.798915,21422.0
1698923878.8194103,21416.0
1698923878.839906,21409.0
1698923878.8604016,21406.0
1698923878.8808978,21410.0
1698923878.9013932,21411.0
1698923878.9218888,21412.0
1698923878.9423845,21411.0
1698923878.96288,21411.0
1698923878.9833755,21416.0
1698923879.0038712,21417.0
1698923879.0243669,21409.0
1698923879.0448623,21411.0
1698923879.0653582,21418.0
1698923879.0858538,21409.0
1698923879.1063495,21413.0
1698923879.126845,21423.0
1698923879.1473408,21418.0
1698923879.1678364,21422.0
1698923879.188332,21424.0
1698923879.2088277,21424.0
1698923879.2293231,21433.0
1698923879.2498188,21426.0
1698923879.2703147,21433.0
1698923879.2908103,21432.0
1698923879.311306,21444.0
1698923879.3318014,21436.0
1698923879.352297,21440.0
1698923879.3727927,21448.0
1698923879.3932884,21451.0
1698923879.4137843,21448.0
1698923879.4342797,21454.0
1698923879.4547753,21465.0
1698923879.475271,21472.0
1698923879.4957666,21471.0
1698923879.5162623,21483.0
1698923879.536758,21480.0
1698923879.5572536,21482.0
1698923879.5777493,21486.0
1698923879.598245,21481.0
1698923879.6187406,21485.0
1698923879.639236,21476.0
1698923879.6597319,21461.0
1698923879.6802275,21462.0
1698923879.7007232,21460.0
1698923879.7212188,21457.0
1698923879.7417142,21458.0
1698923879.76221,21449.0
1698923879.7827055,21447.0
1698923879.8032014,21438.0
1698923879.823697,21441.0
1698923879.8441927,21439.0
1698923879.8646882,21443.0
1698923879.8851838,21442.0
1698923879.9056795,21446.0
1698923879.9261754,21446.0
1698923879.946671,21442.0
1698923879.9671664,21429.0
1698923879.987662,21437.0
1698923880.0081577,21443.0
1698923880.0286534,21447.0
1698923880.0491493,21457.0
1698923880.0696447,21461.0
1698923880.0901403,21464.0
1698923880.110636,21475.0
1698923880.1311316,21476.0
1698923880.1516273,21473.0
1698923880.1721227,21481.0
1698923880.1926188,21481.0
1698923880.2131145,21478.0
1698923880.2336102,21482.0
1698923880.2541058,21485.0
1698923880.274601,21485.0
1698923880.2950966,21483.0
1698923880.3155923,21491.0
1698923880.336088,21492.0
1698923880.3565836,21501.0
1698923880.377079,21500.0
1698923880.397575,21506.0
1698923880.4180706,21507.0
1698923880.4385664,21508.0
1698923880.459062,21508.0
1698923880.4795575,21510.0
1698923880.5000532,21509.0
1698923880.5205488,21515.0
1698923880.5410445,21517.0
1698923880.5615401,21517.0
1698923880.5820358,21517.0
1698923880.6025314,21522.0
1698923880.623027,21523.0
1698923880.6435227,21536.0
1698923880.6640184,21529.0
1698923880.6845138,21541.0
1698923880.7050097,21531.0
1698923880.7255054,21526.0
1698923880.746001,21531.0
1698923880.7664967,21527.0
1698923880.786992,21530.0
1698923880.8074877,21529.0
1698923880.8279836,21529.0
1698923880.8484793,21520.0
1698923880.868975,21528.0
1698923880.8894706,21527.0
1698923880.909966,21517.0
1698923880.9304616,21524.0
1698923880.9509573,21522.0
1698923880.9714532,21522.0
1698923880.9919488,21524.0
1698923881.0124443,21529.0
1698923881.03294,21526.0
1698923881.0534356,21519.0
1698923881.0739312,21517.0
1698923881.094427,21512.0
1698923881.1149225,21514.0
1698923881.1354182,21520.0
1698923881.1559138,21512.0
1698923881.1764095,21521.0
1698923881.1969051,21514.0
1698923881.2174008,21517.0
1698923881.2378964,21520.0
1698923881.258392,21512.0
1698923881.2788877,21504.0
1698923881.2993834,21507.0
1698923881.3198788,21499.0
1698923881.3403745,21494.0
1698923881.3608704,21488.0
1698923881.381366,21479.0
1698923881.4018617,21479.0
1698923881.422357,21477.0
1698923881.4428527,21474.0
1698923881.4633484,21472.0
1698923881.4838443,21475.0
1698923881.50434,21469.0
1698923881.5248353,21472.0
1698923881.545331,21477.0
1698923881.565827,21478.0
1698923881.5863225,21479.0
1698923881.6068182,21484.0
1698923881.6273136,21475.0
1698923881.647809,21482.0
1698923881.668305,21484.0
1698923881.6888003,21477.0
1698923881.709296,21479.0
1698923881.7297914,21472.0
1698923881.7502875,21471.0
1698923881.7707832,21471.0
1698923881.7912788,21475.0
1698923881.8117745,21464.0
1698923881.83227,21471.0
1698923881.8527656,21469.0
1698923881.8732617,21476.0
1698923881.893757,21467.0
1698923881.9142528,21469.0
1698923881.9347482,21478.0
1698923881.9552438,21474.0
1698923881.9757395,21478.0
1698923881.9962351,21472.0
1698923882.016731,21472.0
1698923882.0372267,21474.0
1698923882.057722,21467.0
1698923882.0782177,21467.0
1698923882.0987134,21471.0
1698923882.119209,21464.0
1698923882.139705,21463.0
1698923882.1602004,21470.0
1698923882.180696,21467.0
1698923882.2011917,21459.0
1698923882.2216873,21459.0
1698923882.242183,21456.0
1698923882.2626786,21455.0
1698923882.2831743,21448.0
1698923882.30367,21446.0
1698923882.3241656,21437.0
1698923882.3446612,21425.0
1698923882.3651567,21426.0
1698923882.3856523,21417.0
1698923882.4061482,21416.0
1698923882.4266438,21411.0
1698923882.4471395,21414.0
1698923882.467635,21407.0
1698923882.4881306,21401.0
1698923882.5086262,21400.0
1698923882.529122,21400.0
1698923882.5496178,21394.0
1698923882.5701132,21389.0
1698923882.5906088,21381.0
1698923882.6111045,21377.0
1698923882.6316001,21378.0
1698923882.652096,21369.0
1698923882.6725914,21367.0
1698923882.693087,21363.0
1698923882.7135828,21357.0
1698923882.7340784,21350.0
1698923882.754574,21345.0
1698923882.7750695,21338.0
1698923882.7955654,21336.0
1698923882.816061,21323.0
1698923882.8365567,21320.0
1698923882.8570523,21316.0
1698923882.877548,21313.0
1698923882.8980436,21308.0
1698923882.9185393,21303.0
1698923882.939035,21314.0
1698923882.9595306,21309.0
1698923882.9800258,21314.0
1698923883.0005214,21301.0
1698923883.021017,21304.0
1698923883.0415132,21304.0
1698923883.0620089,21315.0
1698923883.0825045,21315.0
1698923883.123394,21332.0
1698923883.1437883,21332.0
1698923883.1641824,21343.0
1698923883.1845765,21346.0
1698923883.2049706,21344.0
1698923883.2253647,21359.0
1698923883.2457588,21353.0
1698923883.266153,21366.0
1698923883.2865472,21358.0
1698923883.3069415,21359.0
1698923883.3273354,21353.0
1698923883.3477294,21347.0
1698923883.3681238,21332.0
1698923883.3885179,21326.0
1698923883.4089122,21309.0
1698923883.4293063,21294.0
1698923883.4497,21282.0
1698923883.4700942,21273.0
1698923883.4904883,21264.0
1698923883.5108826,21261.0
1698923883.5312767,21269.0
1698923883.5516708,21267.0
1698923883.5720649,21265.0
1698923883.592459,21270.0
1698923883.6128533,21263.0
1698923883.6332474,21269.0
1698923883.6536415,21283.0
1698923883.6740355,21294.0
1698923883.6944296,21309.0
1698923883.714824,21321.0
1698923883.735218,21342.0
1698923883.7556121,21353.0
1698923883.7760065,21364.0
1698923883.7964003,21360.0
1698923883.8167944,21317.0
1698923883.8371887,21360.0
1698923883.8575828,21346.0
1698923883.877977,21342.0
1698923883.898371,21341.0
1698923883.918765,21330.0
1698923883.9391592,21346.0
1698923883.9595537,21280.0
1698923883.9799476,21313.0
1698923884.0003417,21307.0
1698923884.0207357,21307.0
1698923884.0411298,21299.0
1698923884.0615242,21291.0
1698923884.0819182,21268.0
1698923884.1023126,21260.0
1698923884.1227064,21253.0
1698923884.1431005,21245.0
1698923884.1634946,21237.0
1698923884.183889,21232.0
1698923884.204283,21229.0
1698923884.224677,21226.0
1698923884.2450712,21219.0
1698923884.265465,21218.0
1698923884.2858593,21208.0
1698923884.3062537,21203.0
1698923884.3266478,21198.0
1698923884.3470416,21198.0
1698923884.367436,21193.0
1698923884.38783,21191.0
1698923884.408224,21184.0
1698923884.4286184,21175.0
1698923884.4490125,21173.0
1698923884.4694068,21165.0
1698923884.4898007,21163.0
1698923884.5101948,21156.0
1698923884.530589,21152.0
1698923884.5509832,21143.0
1698923884.5713773,21144.0
1698923884.5917716,21142.0
1698923884.6121655,21136.0
1698923884.6325595,21124.0
1698923884.652954,21110.0
1698923884.673348,21100.0
1698923884.693742,21092.0
1698923884.7141361,21090.0
1698923884.7345304,21077.0
1698923884.7549243,21073.0
1698923884.7753186,21074.0
1698923884.7957127,21079.0
1698923884.816107,21071.0
1698923884.836501,21067.0
1698923884.856895,21069.0
1698923884.8772893,21074.0
1698923884.8976831,21076.0
1698923884.9180775,21064.0
1698923884.9384718,21074.0
1698923884.9588654,21075.0
1698923884.9792597,21076.0
1698923884.999654,21077.0
1698923885.0200481,21068.0
1698923885.040442,21067.0
1698923885.0608363,21062.0
1698923885.0812304,21060.0
1698923885.1016245,21067.0
1698923885.1220188,21065.0
1698923885.142413,21062.0
1698923885.1628072,21055.0
1698923885.183201,21048.0
1698923885.2035952,21049.0
1698923885.2239895,21037.0
1698923885.2443836,21035.0
1698923885.2647777,21027.0
1698923885.2851722,21030.0
1698923885.3055658,21024.0
1698923885.32596,21025.0
1698923885.3463542,21018.0
1698923885.3667483,21010.0
1698923885.3871424,21000.0
1698923885.4075365,21002.0
1698923885.4279308,20991.0
1698923885.4483247,20984.0
1698923885.468719,20981.0
1698923885.489113,20979.0
1698923885.5095072,20980.0
1698923885.5299013,20977.0
1698923885.5502954,20973.0
1698923885.5706897,20980.0
1698923885.5910835,20975.0
1698923885.6114779,20971.0
1698923885.6318722,20960.0
1698923885.652266,20951.0
1698923885.67266,20940.0
1698923885.6930544,20935.0
1698923885.7134485,20930.0
1698923885.7338424,20935.0
1698923885.7542367,20927.0
1698923885.7746308,20921.0
1698923885.7950249,20915.0
1698923885.8154192,20915.0
1698923885.8358133,20915.0
1698923885.8562074,20918.0
1698923885.8766015,20916.0
1698923885.8969955,20912.0
1698923885.9173899,20913.0
1698923885.937784,20907.0
1698923885.958178,20906.0
1698923885.9785726,20917.0
1698923885.9989662,20930.0
1698923886.0193603,20936.0
1698923886.0397546,20931.0
1698923886.0601487,20936.0
1698923886.0805428,20940.0
1698923886.1009371,20954.0
1698923886.121331,20955.0
1698923886.141725,20958.0
1698923886.1621194,20957.0
1698923886.1825135,20961.0
1698923886.2029078,20962.0
1698923886.2233016,20955.0
1698923886.2436957,20964.0
1698923886.2640898,20955.0
1698923886.284484,20961.0
1698923886.3048782,20963.0
1698923886.3252726,20968.0
1698923886.3456664,20959.0
1698923886.3660603,20965.0
1698923886.3864548,20971.0
1698923886.406849,20963.0
1698923886.427243,20952.0
1698923886.4476373,20942.0
1698923886.4680312,20941.0
1698923886.4884253,20927.0
1698923886.5088196,20935.0
1698923886.5292137,20932.0
1698923886.5496078,20921.0
1698923886.5700018,20921.0
1698923886.590396,20926.0
1698923886.61079,20926.0
1698923886.6311843,20928.0
1698923886.6515784,20929.0
1698923886.671973,20927.0
1698923886.6923666,20927.0
1698923886.7127607,20923.0
1698923886.733155,20916.0
1698923886.753549,20919.0
1698923886.7739432,20918.0
1698923886.7943375,20913.0
1698923886.8147314,20911.0
1698923886.8351254,20914.0
1698923886.8555198,20917.0
1698923886.8759139,20910.0
1698923886.8963082,20912.0
1698923886.9167018,20912.0
1698923886.937096,20912.0
1698923886.9574902,20909.0
1698923886.9778845,20904.0
1698923886.9982786,20899.0
1698923887.0186727,20891.0
1698923887.0390668,20889.0
1698923887.0594609,20888.0
1698923887.0798552,20896.0
1698923887.1002493,20896.0
1698923887.1206434,20900.0
1698923887.1410377,20905.0
1698923887.1614316,20906.0
1698923887.1818256,20904.0
1698923887.20222,20904.0
1698923887.222614,20910.0
1698923887.2430081,20908.0
1698923887.2634025,20910.0
1698923887.2837963,20905.0
1698923887.3041904,20905.0
1698923887.3245847,20894.0
1698923887.3449788,20889.0
1698923887.365373,20898.0
1698923887.385767,20901.0
1698923887.406161,20898.0
1698923887.4265554,20898.0
1698923887.4469497,20885.0
1698923887.4673436,20881.0
1698923887.487738,20872.0
1698923887.5081317,20854.0
1698923887.5285258,20844.0
1698923887.5489202,20836.0
1698923887.5693142,20830.0
1698923887.5897086,20826.0
1698923887.6101022,20825.0
1698923887.6304965,20823.0
1698923887.6508906,20823.0
1698923887.671285,20820.0
1698923887.691679,20830.0
1698923887.712073,20828.0
1698923887.7324672,20834.0
1698923887.752861,20836.0
1698923887.7732553,20837.0
1698923887.7936497,20832.0
1698923887.8140438,20834.0
1698923887.834438,20834.0
1698923887.854832,20833.0
1698923887.875226,20826.0
1698923887.8956203,20829.0
1698923887.9160144,20832.0
1698923887.9364085,20827.0
1698923887.9568028,20837.0
1698923887.9771967,20841.0
1698923887.9975908,20829.0
1698923888.017985,20822.0
1698923888.0383792,20818.0
1698923888.0587733,20813.0
1698923888.0791674,20805.0
1698923888.0995615,20801.0
1698923888.1199555,20801.0
1698923888.14035,20803.0
1698923888.160744,20814.0
1698923888.1811383,20814.0
1698923888.2015321,20809.0
1698923888.2219265,20820.0
1698923888.2423205,20819.0
1698923888.2627146,20822.0
1698923888.2831087,20826.0
1698923888.303503,20824.0
1698923888.323897,20838.0
1698923888.344291,20830.0
1698923888.3646853,20831.0
1698923888.3850791,20828.0
1698923888.4054735,20825.0
1698923888.4258676,20827.0
1698923888.4462616,20833.0
1698923888.4666557,20837.0
1698923888.48705,20845.0
1698923888.5074441,20837.0
1698923888.5278385,20828.0
1698923888.5482323,20819.0
1698923888.5686264,20809.0
1698923888.5890207,20788.0
1698923888.6094148,20770.0
1698923888.629809,20763.0
1698923888.6502032,20762.0
1698923888.670597,20761.0
1698923888.6909912,20757.0
1698923888.7113855,20761.0
1698923888.7317796,20762.0
1698923888.7521737,20758.0
1698923888.7725682,20767.0
1698923888.7929618,20774.0
1698923888.813356,20774.0
1698923888.8337502,20780.0
1698923888.8541443,20786.0
1698923888.8745384,20780.0
1698923888.8949325,20777.0
1698923888.9153268,20772.0
1698923888.935721,20778.0
1698923888.956115,20776.0
1698923888.976509,20778.0
1698923888.9969034,20780.0
1698923889.0172973,20773.0
1698923889.0376914,20768.0
1698923889.0580857,20767.0
1698923889.0784795,20761.0
1698923889.0988739,20755.0
1698923889.1192682,20743.0
1698923889.139662,20742.0
1698923889.160056,20735.0
1698923889.1804504,20726.0
1698923889.2008445,20725.0
1698923889.2212384,20726.0
1698923889.2416327,20733.0
1698923889.2620268,20734.0
1698923889.282421,20742.0
1698923889.3028152,20744.0
1698923889.3232093,20745.0
1698923889.3436036,20744.0
1698923889.3639975,20746.0
1698923889.3843915,20755.0
1698923889.4047859,20750.0
1698923889.42518,20752.0
1698923889.445574,20757.0
1698923889.4659686,20765.0
1698923889.4863622,20774.0
1698923889.5067563,20765.0
1698923889.5271506,20774.0
1698923889.547545,20770.0
1698923889.5679388,20773.0
1698923889.588333,20772.0
1698923889.608727,20758.0
1698923889.629121,20745.0
1698923889.6495154,20722.0
1698923889.6699095,20711.0
1698923889.6903038,20706.0
1698923889.7106977,20697.0
1698923889.7310917,20689.0
1698923889.751486,20689.0
1698923889.77188,20685.0
1698923889.7922742,20688.0
1698923889.8126686,20697.0
1698923889.8330624,20696.0
1698923889.8534563,20703.0
1698923889.8738508,20709.0
1698923889.894245,20701.0
1698923889.914639,20706.0
1698923889.9350333,20708.0
1698923889.9554272,20706.0
1698923889.9758213,20701.0
1698923889.9962156,20706.0
1698923890.0166097,20697.0
1698923890.037004,20688.0
1698923890.0573978,20681.0
1698923890.077792,20672.0
1698923890.0981863,20671.0
1698923890.1185803,20664.0
1698923890.1389744,20656.0
1698923890.159369,20649.0
1698923890.1797626,20640.0
1698923890.2001567,20640.0
1698923890.220551,20637.0
1698923890.240945,20635.0
1698923890.2613392,20644.0
1698923890.2817335,20643.0
1698923890.3021274,20657.0
1698923890.3225214,20664.0
1698923890.3429158,20671.0
1698923890.3633099,20675.0
1698923890.3837042,20677.0
1698923890.4040978,20676.0
1698923890.4244921,20682.0
1698923890.4448864,20682.0
1698923890.4652805,20676.0
1698923890.4856746,20673.0
1698923890.506069,20669.0
1698923890.5264628,20670.0
1698923890.5468569,20660.0
1698923890.5672512,20650.0
1698923890.5876453,20641.0
1698923890.6080394,20635.0
1698923890.6284337,20624.0
1698923890.6488276,20617.0
1698923890.6692216,20603.0
1698923890.689616,20595.0
1698923890.71001,20583.0
1698923890.7304041,20570.0
1698923890.7507982,20569.0
1698923890.7711923,20569.0
1698923890.7915869,20567.0
1698923890.8119807,20570.0
1698923890.8323748,20576.0
1698923890.8527691,20581.0
1698923890.873163,20586.0
1698923890.893557,20589.0
1698923890.9139514,20598.0
1698923890.9343457,20605.0
1698923890.9547396,20612.0
1698923890.975134,20621.0
1698923890.9955277,20621.0
1698923891.015922,20621.0
1698923891.0363162,20619.0
1698923891.0567102,20617.0
1698923891.0771043,20615.0
1698923891.0974982,20604.0
1698923891.1178925,20598.0
1698923891.1382866,20591.0
1698923891.158681,20583.0
1698923891.179075,20580.0
1698923891.1994693,20590.0
1698923891.2198632,20579.0
1698923891.240257,20580.0
1698923891.2606516,20572.0
1698923891.2810457,20576.0
1698923891.3014398,20573.0
1698923891.321834,20577.0
1698923891.342228,20575.0
1698923891.362622,20583.0
1698923891.3830163,20588.0
1698923891.4034104,20596.0
1698923891.4238045,20592.0
1698923891.4441988,20595.0
1698923891.4645927,20591.0
1698923891.4849868,20590.0
1698923891.505381,20595.0
1698923891.5257752,20588.0
1698923891.5461695,20589.0
1698923891.5665636,20586.0
1698923891.5869575,20574.0
1698923891.6073518,20565.0
1698923891.6277459,20553.0
1698923891.64814,20543.0
1698923891.6685343,20533.0
1698923891.6889281,20523.0
1698923891.7093225,20521.0
1698923891.7297165,20517.0
1698923891.7501106,20514.0
1698923891.7705047,20509.0
1698923891.790899,20495.0
1698923891.811293,20492.0
1698923891.831687,20494.0
1698923891.8520813,20491.0
1698923891.8724751,20491.0
1698923891.8928697,20487.0
1698923891.9132636,20491.0
1698923891.9336576,20502.0
1698923891.954052,20514.0
1698923891.974446,20522.0
1698923891.9948401,20535.0
1698923892.0152345,20546.0
1698923892.0356283,20556.0
1698923892.0560224,20564.0
1698923892.0764167,20555.0
1698923892.0968108,20562.0
1698923892.117205,20566.0
1698923892.1375992,20564.0
1698923892.157993,20565.0
1698923892.1783872,20554.0
1698923892.1987815,20551.0
1698923892.2191756,20544.0
1698923892.2395697,20536.0
1698923892.2599642,20538.0
1698923892.2803578,20531.0
1698923892.3007522,20538.0
1698923892.3211462,20540.0
1698923892.3415403,20534.0
1698923892.3619347,20530.0
1698923892.3823285,20533.0
1698923892.4027228,20531.0
1698923892.423117,20525.0
1698923892.443511,20525.0
1698923892.463905,20521.0
1698923892.4842994,20526.0
1698923892.5046933,20539.0
1698923892.5250874,20541.0
1698923892.5454817,20547.0
1698923892.5658755,20542.0
1698923892.5862699,20541.0
1698923892.6066642,20539.0
1698923892.627058,20520.0
1698923892.6474524,20512.0
1698923892.6678464,20497.0
1698923892.6882405,20493.0
1698923892.7086349,20475.0
1698923892.7290287,20471.0
1698923892.7494228,20459.0
1698923892.769817,20453.0
1698923892.7902112,20451.0
1698923892.8106053,20450.0
1698923892.8309996,20456.0
1698923892.8513935,20452.0
1698923892.8717875,20452.0
1698923892.8921819,20444.0
1698923892.912576,20437.0
1698923892.93297,20430.0
1698923892.9533646,20423.0
1698923892.9737582,20439.0
1698923892.9941523,20448.0
1698923893.0145466,20453.0
1698923893.034941,20461.0
1698923893.055335,20469.0
1698923893.075729,20478.0
1698923893.096123,20485.0
1698923893.116517,20484.0
1698923893.1369114,20486.0
1698923893.1573055,20481.0
1698923893.1776998,20490.0
1698923893.1980937,20486.0
1698923893.2184877,20493.0
1698923893.238882,20484.0
1698923893.259276,20480.0
1698923893.2796702,20487.0
1698923893.3000646,20482.0
1698923893.3204584,20487.0
1698923893.3408523,20494.0
1698923893.3612468,20491.0
1698923893.381641,20500.0
1698923893.4020352,20508.0
1698923893.422429,20506.0
1698923893.4428232,20508.0
1698923893.4632175,20511.0
1698923893.4836116,20509.0
1698923893.5040057,20512.0
1698923893.5244,20511.0
1698923893.5447938,20519.0
1698923893.565188,20519.0
1698923893.5855825,20520.0
1698923893.6059763,20519.0
1698923893.6263704,20512.0
1698923893.6467648,20511.0
1698923893.6671586,20504.0
1698923893.6875527,20500.0
1698923893.707947,20492.0
1698923893.728341,20486.0
1698923893.7487352,20473.0
1698923893.7691293,20473.0
1698923893.7895234,20459.0
1698923893.8099174,20457.0
1698923893.8303118,20451.0
1698923893.8507059,20444.0
1698923893.8711002,20438.0
1698923893.8914938,20441.0
1698923893.9118881,20436.0
1698923893.9322824,20429.0
1698923893.9526765,20427.0
1698923893.9730706,20423.0
1698923893.993465,20420.0
1698923894.0138588,20424.0
1698923894.034253,20420.0
1698923894.0546472,20422.0
1698923894.0750413,20421.0
1698923894.0954354,20420.0
1698923894.1158297,20432.0
1698923894.1362236,20426.0
1698923894.1566179,20433.0
1698923894.177012,20436.0
1698923894.197406,20435.0
1698923894.2178004,20434.0
1698923894.2381942,20438.0
1698923894.2585883,20445.0
1698923894.2789829,20439.0
1698923894.2993767,20441.0
1698923894.3197708,20443.0
1698923894.3401651,20444.0
1698923894.360559,20441.0
1698923894.380953,20436.0
1698923894.4013474,20437.0
1698923894.4217417,20438.0
1698923894.4421356,20441.0
1698923894.46253,20430.0
1698923894.4829237,20436.0
1698923894.503318,20437.0
1698923894.5237122,20442.0
1698923894.5441062,20447.0
1698923894.5645006,20450.0
1698923894.5848942,20449.0
1698923894.6052885,20453.0
1698923894.6256828,20456.0
1698923894.646077,20458.0
1698923894.666471,20452.0
1698923894.6868653,20447.0
1698923894.7072592,20445.0
1698923894.7276533,20438.0
1698923894.7480476,20435.0
1698923894.7684417,20431.0
1698923894.7888358,20424.0
1698923894.80923,20419.0
1698923894.829624,20417.0
1698923894.850018,20408.0
1698923894.8704123,20395.0
1698923894.8908064,20395.0
1698923894.9112008,20393.0
1698923894.9315946,20382.0
1698923894.9519887,20380.0
1698923894.972383,20376.0
1698923894.992777,20363.0
1698923895.0131712,20361.0
1698923895.0335655,20359.0
1698923895.0539596,20362.0
1698923895.0743535,20367.0
1698923895.0947478,20367.0
1698923895.1151419,20363.0
1698923895.135536,20362.0
1698923895.1559303,20353.0
1698923895.1763241,20352.0
1698923895.1967185,20342.0
1698923895.2171123,20344.0
1698923895.2375066,20344.0
1698923895.257901,20345.0
1698923895.278295,20346.0
1698923895.298689,20350.0
1698923895.3190832,20350.0
1698923895.3394773,20360.0
1698923895.3598711,20363.0
1698923895.3802657,20372.0
1698923895.4006596,20376.0
1698923895.4210536,20383.0
1698923895.441448,20385.0
1698923895.461842,20383.0
1698923895.4822361,20387.0
1698923895.5026305,20393.0
1698923895.5230243,20390.0
1698923895.5434184,20387.0
1698923895.5638127,20387.0
1698923895.5842068,20382.0
1698923895.604601,20386.0
1698923895.6249952,20381.0
1698923895.645389,20389.0
1698923895.6657834,20399.0
1698923895.6861775,20393.0
1698923895.7065716,20385.0
1698923895.726966,20386.0
1698923895.74736,20379.0
1698923895.7677538,20361.0
1698923895.7881482,20361.0
1698923895.8085423,20353.0
1698923895.8289363,20354.0
1698923895.8493307,20355.0
1698923895.8697245,20363.0
1698923895.8901188,20363.0
1698923895.910513,20369.0
1698923895.930907,20380.0
1698923895.951301,20377.0
1698923895.9716954,20378.0
1698923895.9920893,20378.0
1698923896.0124836,20374.0
1698923896.0328777,20379.0
1698923896.0532715,20374.0
1698923896.073666,20376.0
1698923896.09406,20378.0
1698923896.114454,20374.0
1698923896.1348484,20368.0
1698923896.1552424,20368.0
1698923896.1756365,20358.0
1698923896.1960309,20354.0
1698923896.2164247,20340.0
1698923896.2368188,20331.0
1698923896.257213,20327.0
1698923896.2776072,20317.0
1698923896.2980013,20313.0
1698923896.3183956,20308.0
1698923896.3387895,20297.0
1698923896.3591835,20282.0
1698923896.3795779,20279.0
1698923896.399972,20276.0
1698923896.4203663,20284.0
1698923896.4407606,20273.0
1698923896.4611542,20287.0
1698923896.4815485,20280.0
1698923896.5019426,20295.0
1698923896.522337,20293.0
1698923896.542731,20301.0
1698923896.563125,20309.0
1698923896.583519,20319.0
1698923896.603913,20333.0
1698923896.6243074,20338.0
1698923896.6447015,20346.0
1698923896.6650958,20355.0
1698923896.6854894,20354.0
1698923896.7058837,20357.0
1698923896.726278,20357.0
1698923896.7466722,20352.0
1698923896.7670665,20335.0
1698923896.7874606,20328.0
1698923896.8078544,20324.0
1698923896.8282487,20322.0
1698923896.8486428,20318.0
1698923896.869037,20310.0
1698923896.8894312,20312.0
1698923896.909825,20307.0
1698923896.9302192,20309.0
1698923896.9506135,20306.0
1698923896.9710076,20301.0
1698923896.9914017,20292.0
1698923897.011796,20298.0
1698923897.0321898,20296.0
1698923897.052584,20303.0
1698923897.0729785,20303.0
1698923897.0933723,20302.0
1698923897.1137664,20308.0
1698923897.1341608,20304.0
1698923897.1545546,20305.0
1698923897.174949,20305.0
1698923897.195343,20305.0
1698923897.215737,20303.0
1698923897.2361312,20309.0
1698923897.2565253,20298.0
1698923897.2769194,20295.0
1698923897.2973137,20289.0
1698923897.3177078,20285.0
1698923897.3381019,20288.0
1698923897.3584962,20278.0
1698923897.3788898,20278.0
1698923897.3992841,20270.0
1698923897.4196784,20269.0
1698923897.4400725,20272.0
1698923897.4604666,20274.0
1698923897.480861,20273.0
1698923897.5012548,20277.0
1698923897.5216491,20282.0
1698923897.5420432,20286.0
1698923897.5624373,20285.0
1698923897.5828316,20290.0
1698923897.6032255,20296.0
1698923897.6236196,20300.0
1698923897.644014,20296.0
1698923897.664408,20298.0
1698923897.684802,20300.0
1698923897.7051964,20296.0
1698923897.7255902,20299.0
1698923897.7459843,20300.0
1698923897.7663789,20300.0
1698923897.7867727,20306.0
1698923897.8071668,20303.0
1698923897.8275611,20300.0
1698923897.847955,20302.0
1698923897.868349,20293.0
1698923897.8887434,20290.0
1698923897.9091377,20286.0
1698923897.9295316,20280.0
1698923897.949926,20276.0
1698923897.9703197,20274.0
1698923897.990714,20275.0
1698923898.0111082,20268.0
1698923898.0315022,20264.0
1698923898.0518966,20266.0
1698923898.0722902,20257.0
1698923898.0926845,20253.0
1698923898.1130788,20238.0
1698923898.133473,20240.0
1698923898.153867,20234.0
1698923898.1742613,20233.0
1698923898.1946552,20234.0
1698923898.2150493,20235.0
1698923898.2354436,20234.0
1698923898.2558377,20241.0
1698923898.276232,20238.0
1698923898.296626,20246.0
1698923898.31702,20243.0
1698923898.3374143,20241.0
1698923898.3578084,20246.0
1698923898.3782024,20240.0
1698923898.3985968,20246.0
1698923898.4189906,20246.0
1698923898.4393847,20252.0
1698923898.459779,20248.0
1698923898.480173,20255.0
1698923898.5005672,20260.0
1698923898.5209615,20264.0
1698923898.5413556,20262.0
1698923898.5617495,20267.0
1698923898.5821438,20266.0
1698923898.6025379,20271.0
1698923898.622932,20264.0
1698923898.6433263,20259.0
1698923898.6637201,20257.0
1698923898.6841145,20252.0
1698923898.7045083,20243.0
1698923898.7249026,20239.0
1698923898.745297,20235.0
1698923898.7656908,20233.0
1698923898.786085,20234.0
1698923898.8064792,20231.0
1698923898.8268733,20227.0
1698923898.8472672,20224.0
1698923898.8676617,20222.0
1698923898.8880556,20216.0
1698923898.9084496,20210.0
1698923898.928844,20199.0
1698923898.949238,20196.0
1698923898.9696321,20184.0
1698923898.9900265,20185.0
1698923899.0104203,20179.0
1698923899.0308146,20191.0
1698923899.0512087,20190.0
1698923899.0716028,20196.0
1698923899.0919971,20207.0
1698923899.112391,20215.0
1698923899.132785,20221.0
1698923899.1531794,20234.0
1698923899.1735735,20240.0
1698923899.1939676,20242.0
1698923899.214362,20250.0
1698923899.234756,20254.0
1698923899.2551498,20254.0
1698923899.2755442,20255.0
1698923899.2959383,20241.0
1698923899.3163326,20243.0
1698923899.3367267,20229.0
1698923899.3571205,20220.0
1698923899.3775148,20216.0
1698923899.397909,20208.0
1698923899.418303,20206.0
1698923899.4386973,20201.0
1698923899.4590914,20197.0
1698923899.4794853,20207.0
1698923899.4998796,20195.0
1698923899.5202737,20198.0
1698923899.5406675,20197.0
1698923899.561062,20185.0
1698923899.581456,20185.0
1698923899.60185,20183.0
1698923899.6222444,20185.0
1698923899.6426384,20189.0
1698923899.6630325,20192.0
1698923899.6834269,20197.0
1698923899.7038207,20203.0
1698923899.7242148,20213.0
1698923899.744609,20214.0
1698923899.7650032,20207.0
1698923899.7853978,20216.0
1698923899.8057916,20203.0
1698923899.8261855,20208.0
1698923899.8465798,20195.0
1698923899.866974,20199.0
1698923899.887368,20195.0
1698923899.9077623,20186.0
1698923899.9281561,20177.0
1698923899.9485502,20169.0
1698923899.9689445,20161.0
1698923899.9893386,20157.0
1698923900.009733,20144.0
1698923900.030127,20145.0
1698923900.050521,20137.0
1698923900.070915,20137.0
1698923900.091309,20129.0
1698923900.1117034,20125.0
1698923900.1320977,20112.0
1698923900.1524918,20111.0
1698923900.1728854,20107.0
1698923900.19328,20109.0
1698923900.213674,20107.0
1698923900.2340682,20104.0
1698923900.2544625,20105.0
1698923900.2748563,20111.0
1698923900.2952504,20120.0
1698923900.3156447,20129.0
1698923900.3360388,20140.0
1698923900.356433,20145.0
1698923900.3768272,20152.0
1698923900.397221,20164.0
1698923900.4176152,20166.0
1698923900.4380095,20176.0
1698923900.4584036,20184.0
1698923900.4787977,20188.0
1698923900.499192,20202.0
1698923900.5195858,20198.0
1698923900.5399802,20198.0
1698923900.5603745,20202.0
1698923900.5807683,20196.0
1698923900.6011627,20211.0
1698923900.6215568,20209.0
1698923900.6419506,20214.0
1698923900.662345,20217.0
1698923900.682739,20230.0
1698923900.703133,20238.0
1698923900.7235272,20241.0
1698923900.7439213,20237.0
1698923900.7643154,20240.0
1698923900.7847097,20244.0
1698923900.8051038,20250.0
1698923900.8254979,20251.0
1698923900.8458922,20264.0
1698923900.8662858,20271.0
1698923900.8866804,20276.0
1698923900.9070745,20285.0
1698923900.9274685,20296.0
1698923900.9478629,20300.0
1698923900.968257,20298.0
1698923900.9886508,20300.0
1698923901.0090451,20295.0
1698923901.0294392,20299.0
1698923901.0498333,20297.0
1698923901.0702276,20287.0
1698923901.0906215,20290.0
1698923901.1110156,20285.0
1698923901.13141,20284.0
1698923901.151804,20273.0
1698923901.172198,20277.0
1698923901.1925924,20274.0
1698923901.2129862,20275.0
1698923901.2333803,20276.0
1698923901.253775,20271.0
1698923901.2741687,20264.0
1698923901.294563,20264.0
1698923901.3149571,20259.0
1698923901.335351,20256.0
1698923901.3557453,20256.0
1698923901.3761394,20256.0
1698923901.3965335,20253.0
1698923901.4169276,20251.0
1698923901.4373217,20258.0
1698923901.4577157,20263.0
1698923901.47811,20260.0
1698923901.4985042,20259.0
1698923901.5188982,20255.0
1698923901.5392926,20262.0
1698923901.5596862,20261.0
1698923901.5800805,20259.0
1698923901.6004748,20265.0
1698923901.620869,20256.0
1698923901.6412632,20250.0
1698923901.6616573,20250.0
1698923901.6820512,20241.0
1698923901.7024455,20235.0
1698923901.7228396,20245.0
1698923901.7432337,20241.0
1698923901.763628,20235.0
1698923901.7840219,20238.0
1698923901.804416,20238.0
1698923901.8248103,20234.0
1698923901.8452044,20242.0
1698923901.8655984,20245.0
1698923901.885993,20247.0
1698923901.9063866,20249.0
1698923901.9267807,20248.0
1698923901.947175,20255.0
1698923901.967569,20263.0
1698923901.9879634,20264.0
1698923902.0083575,20272.0
1698923902.0287516,20279.0
1698923902.0491457,20281.0
1698923902.0695398,20288.0
1698923902.0899339,20294.0
1698923902.110328,20287.0
1698923902.1307223,20286.0
1698923902.1511161,20276.0
1698923902.1715105,20273.0
1698923902.1919043,20264.0
1698923902.2122986,20265.0
1698923902.232693,20264.0
1698923902.2530868,20270.0
1698923902.273481,20266.0
1698923902.2938752,20273.0
1698923902.3142693,20276.0
1698923902.3346632,20282.0
1698923902.3550577,20279.0
1698923902.3754516,20279.0
1698923902.395846,20268.0
1698923902.41624,20265.0
1698923902.436634,20254.0
1698923902.4570284,20257.0
1698923902.4774225,20249.0
1698923902.4978163,20246.0
1698923902.5182106,20249.0
1698923902.5386047,20250.0
1698923902.5589988,20244.0
1698923902.5793931,20240.0
1698923902.599787,20239.0
1698923902.620181,20243.0
1698923902.6405754,20236.0
1698923902.6609695,20239.0
1698923902.6813636,20231.0
1698923902.701758,20234.0
1698923902.722152,20219.0
1698923902.7425458,20219.0
1698923902.7629402,20217.0
1698923902.7833343,20210.0
1698923902.8037286,20209.0
1698923902.8241227,20213.0
1698923902.8445165,20208.0
1698923902.8649108,20209.0
1698923902.885305,20204.0
1698923902.905699,20204.0
1698923902.9260933,20211.0
1698923902.9464872,20210.0
1698923902.966881,20210.0
1698923902.9872756,20210.0
1698923903.0076697,20225.0
1698923903.0280638,20226.0
1698923903.048458,20238.0
1698923903.068852,20243.0
1698923903.089246,20244.0
1698923903.1096404,20252.0
1698923903.1300344,20250.0
1698923903.1504288,20252.0
1698923903.1708229,20257.0
1698923903.1912167,20248.0
1698923903.211611,20246.0
1698923903.2320051,20246.0
1698923903.2523992,20234.0
1698923903.2727938,20231.0
1698923903.2931876,20237.0
1698923903.3135815,20230.0
1698923903.3339758,20227.0
1698923903.35437,20220.0
1698923903.374764,20222.0
1698923903.3951583,20217.0
1698923903.4155521,20222.0
1698923903.4359462,20220.0
1698923903.4563406,20217.0
1698923903.4767346,20214.0
1698923903.497129,20213.0
1698923903.517523,20205.0
1698923903.537917,20200.0
1698923903.5583112,20210.0
1698923903.578705,20211.0
1698923903.5990994,20211.0
1698923903.6194937,20211.0
1698923903.6398878,20221.0
1698923903.6602814,20214.0
1698923903.680676,20220.0
1698923903.70107,20218.0
1698923903.7214642,20223.0
1698923903.7418585,20219.0
1698923903.7622523,20218.0
1698923903.7826464,20216.0
1698923903.8030407,20216.0
1698923903.8234348,20211.0
1698923903.843829,20209.0
1698923903.8642232,20203.0
1698923903.884617,20205.0
1698923903.9050117,20201.0
1698923903.9254055,20194.0
1698923903.9457996,20191.0
1698923903.966194,20187.0
1698923903.986588,20189.0
1698923904.0069818,20193.0
1698923904.0273762,20190.0
1698923904.0477705,20196.0
1698923904.0681643,20193.0
1698923904.0885587,20189.0
1698923904.1089525,20191.0
1698923904.1293466,20195.0
1698923904.149741,20189.0
1698923904.170135,20187.0
1698923904.190529,20187.0
1698923904.2109232,20184.0
1698923904.2313173,20182.0
1698923904.2517116,20180.0
1698923904.2721057,20174.0
1698923904.2924998,20172.0
1698923904.312894,20173.0
1698923904.3332882,20176.0
1698923904.3536818,20170.0
1698923904.3740764,20161.0
1698923904.3944705,20164.0
1698923904.4148645,20159.0
1698923904.4352589,20158.0
1698923904.4556527,20154.0
1698923904.4760468,20151.0
1698923904.4964411,20141.0
1698923904.5168352,20143.0
1698923904.5372293,20145.0
1698923904.5576236,20139.0
1698923904.5780175,20141.0
1698923904.5984116,20138.0
1698923904.618806,20133.0
1698923904.6392,20127.0
1698923904.6595943,20128.0
1698923904.6799884,20128.0
1698923904.7003822,20129.0
1698923904.7207766,20117.0
1698923904.741171,20113.0
1698923904.7615647,20108.0
1698923904.781959,20115.0
1698923904.8023531,20104.0
1698923904.822747,20101.0
1698923904.8431413,20105.0
1698923904.8635354,20104.0
1698923904.8839295,20106.0
1698923904.9043236,20112.0
1698923904.9247177,20109.0
1698923904.9451118,20118.0
1698923904.965506,20109.0
1698923904.9859,20111.0
1698923905.0062945,20108.0
1698923905.0266886,20102.0
1698923905.0470824,20107.0
1698923905.0674767,20102.0
1698923905.0878708,20107.0
1698923905.108265,20110.0
1698923905.1286592,20108.0
1698923905.1490533,20106.0
1698923905.1694472,20105.0
1698923905.1898415,20108.0
1698923905.2102356,20106.0
1698923905.2306297,20104.0
1698923905.251024,20096.0
1698923905.2714179,20107.0
1698923905.291812,20114.0
1698923905.3122063,20116.0
1698923905.3326004,20116.0
1698923905.3529947,20122.0
1698923905.373389,20129.0
1698923905.3937826,20126.0
1698923905.414177,20128.0
1698923905.434571,20134.0
1698923905.454965,20127.0
1698923905.4753594,20125.0
1698923905.4957535,20127.0
1698923905.5161476,20134.0
1698923905.5365415,20129.0
1698923905.5569358,20129.0
1698923905.5773299,20133.0
1698923905.5977242,20127.0
1698923905.618118,20130.0
1698923905.6385121,20129.0
1698923905.6589065,20124.0
1698923905.6793003,20124.0
1698923905.6996946,20115.0
1698923905.720089,20110.0
1698923905.7404828,20103.0
1698923905.7608771,20096.0
1698923905.7812712,20089.0
1698923905.8016653,20087.0
1698923905.8220596,20082.0
1698923905.8424537,20082.0
1698923905.8628476,20074.0
1698923905.883242,20073.0
1698923905.903636,20068.0
1698923905.92403,20075.0
1698923905.9444244,20072.0
1698923905.9648185,20067.0
1698923905.9852123,20069.0
1698923906.0056067,20069.0
1698923906.0260007,20070.0
1698923906.0463948,20079.0
1698923906.0667892,20082.0
1698923906.087183,20077.0
1698923906.1075773,20077.0
1698923906.1279714,20077.0
1698923906.1483655,20071.0
1698923906.1687598,20075.0
1698923906.189154,20073.0
1698923906.209548,20076.0
1698923906.2299418,20073.0
1698923906.2503362,20073.0
1698923906.2707303,20071.0
1698923906.2911246,20076.0
1698923906.3115187,20070.0
1698923906.3319125,20082.0
1698923906.3523068,20084.0
1698923906.372701,20100.0
1698923906.393095,20093.0
1698923906.4134893,20105.0
1698923906.4338832,20106.0
1698923906.454277,20114.0
1698923906.4746716,20117.0
1698923906.4950657,20127.0
1698923906.51546,20127.0
1698923906.535854,20129.0
1698923906.556248,20137.0
1698923906.5766423,20135.0
1698923906.5970364,20140.0
1698923906.6174304,20147.0
1698923906.6378248,20156.0
1698923906.6582189,20151.0
1698923906.6786127,20151.0
1698923906.699007,20151.0
1698923906.7194011,20152.0
1698923906.7397952,20149.0
1698923906.7601898,20139.0
1698923906.7805834,20126.0
1698923906.8009775,20120.0
1698923906.8213718,20112.0
1698923906.841766,20107.0
1698923906.8621602,20099.0
1698923906.8825543,20092.0
1698923906.9029481,20083.0
1698923906.9233422,20079.0
1698923906.9437366,20077.0
1698923906.9641306,20078.0
1698923906.984525,20078.0
1698923907.004919,20078.0
1698923907.025313,20074.0
1698923907.0457072,20080.0
1698923907.0661013,20080.0
1698923907.0864954,20088.0
1698923907.1068897,20088.0
1698923907.1272836,20086.0
1698923907.1476774,20091.0
1698923907.168072,20097.0
1698923907.188466,20093.0
1698923907.2088602,20094.0
1698923907.2292545,20092.0
1698923907.2496483,20084.0
1698923907.2700427,20081.0
1698923907.2904367,20079.0
1698923907.3108308,20062.0
1698923907.3312252,20054.0
1698923907.3516192,20045.0
1698923907.372013,20042.0
1698923907.3924077,20038.0
1698923907.4128015,20036.0
1698923907.4331956,20030.0
1698923907.45359,20033.0
1698923907.473984,20027.0
1698923907.4943779,20024.0
1698923907.5147722,20032.0
1698923907.5351665,20030.0
1698923907.5555604,20030.0
1698923907.5759547,20039.0
1698923907.5963485,20048.0
1698923907.6167428,20057.0
1698923907.637137,20059.0
1698923907.657531,20060.0
1698923907.6779253,20064.0
1698923907.6983192,20054.0
1698923907.7187133,20055.0
1698923907.7391076,20056.0
1698923907.7595017,20053.0
1698923907.7798958,20051.0
1698923907.80029,20043.0
1698923907.8206842,20033.0
1698923907.8410778,20030.0
1698923907.8614724,20029.0
1698923907.8818665,20020.0
1698923907.9022605,20012.0
1698923907.9226549,20002.0
1698923907.9430487,20002.0
1698923907.9634428,20002.0
1698923907.9838371,20003.0
1698923908.0042312,20002.0
1698923908.0246255,19994.0
1698923908.0450196,19997.0
1698923908.0654135,20001.0
1698923908.085808,20006.0
1698923908.106202,20013.0
1698923908.126596,20012.0
1698923908.1469903,20021.0
1698923908.1673846,20023.0
1698923908.1877782,20029.0
1698923908.2081726,20026.0
1698923908.228567,20035.0
1698923908.2489607,20039.0
1698923908.269355,20040.0
1698923908.289749,20039.0
1698923908.310143,20036.0
1698923908.3305373,20033.0
1698923908.3509314,20030.0
1698923908.3713257,20029.0
1698923908.3917196,20020.0
1698923908.4121137,20020.0
1698923908.432508,20009.0
1698923908.452902,20010.0
1698923908.473296,20005.0
1698923908.4936905,20003.0
1698923908.5140846,19999.0
1698923908.5344784,20007.0
1698923908.5548728,20010.0
1698923908.5752668,20006.0
1698923908.595661,20009.0
1698923908.6160553,20007.0
1698923908.6364493,20008.0
1698923908.6568432,20008.0
1698923908.6772375,20012.0
1698923908.6976316,20010.0
1698923908.718026,20013.0
1698923908.73842,20013.0
1698923908.7588139,20018.0
1698923908.7792084,20025.0
1698923908.7996023,20027.0
1698923908.8199964,20029.0
1698923908.8403907,20021.0
1698923908.860785,20020.0
1698923908.8811786,20012.0
1698923908.901573,19999.0
1698923908.921967,19994.0
1698923908.942361,19994.0
1698923908.9627554,19992.0
1698923908.9831495,19985.0
1698923909.0035436,19985.0
1698923909.0239375,19979.0
1698923909.0443318,19976.0
1698923909.0647259,19982.0
1698923909.0851202,19981.0
1698923909.105514,19981.0
1698923909.1259084,19992.0
1698923909.1463025,19985.0
1698923909.1666963,19983.0
1698923909.1870909,19982.0
1698923909.207485,19988.0
1698923909.2278788,19987.0
1698923909.2482731,19989.0
1698923909.2686672,19993.0
1698923909.2890613,19997.0
1698923909.3094556,20002.0
1698923909.3298497,20007.0
1698923909.3502436,20005.0
1698923909.370638,20005.0
1698923909.391032,20001.0
1698923909.411426,20002.0
1698923909.4318204,20002.0
1698923909.4522142,19997.0
1698923909.4726086,19995.0
1698923909.4930027,19993.0
1698923909.5133967,19990.0
1698923909.533791,19992.0
1698923909.5541852,19991.0
1698923909.574579,19988.0
1698923909.5949733,19986.0
1698923909.6153674,19976.0
1698923909.6357617,19985.0
1698923909.6561558,19979.0
1698923909.67655,19984.0
1698923909.6969438,19984.0
1698923909.7173378,19983.0
1698923909.7377322,19987.0
1698923909.7581263,19985.0
1698923909.7785206,19991.0
1698923909.7989144,19997.0
1698923909.8193085,20000.0
1698923909.8397028,19999.0
1698923909.860097,20000.0
1698923909.8804913,19999.0
1698923909.9008853,19993.0
1698923909.9212792,19989.0
1698923909.9416735,19983.0
1698923909.9620676,19977.0
1698923909.9824617,19973.0
1698923910.002856,19972.0
1698923910.02325,19963.0
1698923910.043644,19957.0
1698923910.0640383,19954.0
1698923910.0844324,19954.0
1698923910.1048265,19944.0
1698923910.1252208,19953.0
1698923910.1456149,19954.0
1698923910.1660087,19951.0
1698923910.186403,19952.0
1698923910.2067971,19943.0
1698923910.2271914,19938.0
1698923910.2475855,19939.0
1698923910.2679794,19937.0
1698923910.2883737,19930.0
1698923910.3087678,19934.0
1698923910.3291621,19931.0
1698923910.3495562,19935.0
1698923910.3699503,19928.0
1698923910.3903441,19928.0
1698923910.4107382,19933.0
1698923910.4311326,19931.0
1698923910.4515266,19923.0
1698923910.471921,19918.0
1698923910.492315,19914.0
1698923910.512709,19911.0
1698923910.5331032,19908.0
1698923910.5534973,19910.0
1698923910.5738914,19906.0
1698923910.5942857,19912.0
1698923910.6146796,19918.0
1698923910.635074,19918.0
1698923910.655468,19925.0
1698923910.675862,19925.0
1698923910.6962564,19928.0
1698923910.7166505,19921.0
1698923910.7370443,19926.0
1698923910.7574387,19923.0
1698923910.7778327,19924.0
1698923910.7982268,19931.0
1698923910.8186212,19935.0
1698923910.8390152,19942.0
1698923910.859409,19937.0
1698923910.8798037,19945.0
1698923910.9001975,19953.0
1698923910.9205916,19965.0
1698923910.940986,19972.0
1698923910.9613798,19978.0
1698923910.981774,19976.0
1698923911.0021682,19972.0
1698923911.0225625,19967.0
1698923911.0429564,19970.0
1698923911.0633507,19970.0
1698923911.0837445,19963.0
1698923911.1041389,19959.0
1698923911.124533,19944.0
1698923911.144927,19945.0
1698923911.1653214,19943.0
1698923911.1857152,19938.0
1698923911.2061093,19935.0
1698923911.2265036,19932.0
1698923911.2468977,19937.0
1698923911.2672915,19934.0
1698923911.287686,19946.0
1698923911.3080802,19964.0
1698923911.328474,19980.0
1698923911.3488684,19995.0
1698923911.3692625,20019.0
1698923911.3896568,20037.0
1698923911.4100509,20057.0
1698923911.4304447,20086.0
1698923911.450839,20111.0
1698923911.4712331,20132.0
1698923911.4916272,20152.0
1698923911.5120215,20180.0
1698923911.5324156,20190.0
1698923911.5528095,20203.0
1698923911.573204,20223.0
1698923911.593598,20237.0
1698923911.613992,20267.0
1698923911.6343863,20272.0
1698923911.6547806,20283.0
1698923911.6751742,20294.0
1698923911.6955686,20299.0
1698923911.7159626,20307.0
1698923911.736357,20309.0
1698923911.756751,20319.0
1698923911.777145,20329.0
1698923911.7975392,20337.0
1698923911.817933,20349.0
1698923911.8383274,20364.0
1698923911.8587217,20382.0
1698923911.8791156,20396.0
1698923911.8995097,20430.0
1698923911.919904,20460.0
1698923911.940298,20502.0
1698923911.960692,20528.0
1698923911.9810865,20567.0
1698923912.0014806,20598.0
1698923912.0218744,20628.0
1698923912.0422688,20652.0
1698923912.0626628,20670.0
1698923912.0830572,20691.0
1698923912.1034513,20721.0
1698923912.123845,20742.0
1698923912.1442394,20767.0
1698923912.1646335,20782.0
1698923912.1850276,20805.0
1698923912.2054222,20830.0
1698923912.225816,20853.0
1698923912.2462099,20884.0
1698923912.2666042,20900.0
1698923912.2869983,20920.0
1698923912.3073924,20937.0
1698923912.3277867,20954.0
1698923912.348181,20974.0
1698923912.3685746,20987.0
1698923912.388969,21008.0
1698923912.409363,21007.0
1698923912.429757,21019.0
1698923912.4501514,21024.0
1698923912.4705453,21031.0
1698923912.4909396,21033.0
1698923912.5113335,21036.0
1698923912.5317278,21043.0
1698923912.552122,21062.0
1698923912.5725162,21066.0
1698923912.59291,21073.0
1698923912.6133044,21079.0
1698923912.6336985,21091.0
1698923912.6540923,21101.0
1698923912.6744869,21114.0
1698923912.694881,21127.0
1698923912.7152748,21150.0
1698923912.7356691,21162.0
1698923912.7560632,21174.0
1698923912.7764573,21185.0
1698923912.7968516,21189.0
1698923912.8172457,21210.0
1698923912.8376398,21219.0
1698923912.858034,21221.0
1698923912.878428,21235.0
1698923912.8988225,21246.0
1698923912.9192164,21251.0
1698923912.9396102,21262.0
1698923912.9600046,21259.0
1698923912.9803987,21267.0
1698923913.0007927,21271.0
1698923913.021187,21270.0
1698923913.0415812,21289.0
1698923913.061975,21296.0
1698923913.0823693,21294.0
1698923913.1027634,21293.0
1698923913.1231577,21298.0
1698923913.1435518,21300.0
1698923913.163946,21305.0
1698923913.1843398,21315.0
1698923913.2047338,21315.0
1698923913.2251282,21325.0
1698923913.2455225,21323.0
1698923913.2659166,21331.0
1698923913.2863102,21328.0
1698923913.3067048,21340.0
1698923913.3270988,21349.0
1698923913.347493,21350.0
1698923913.3678873,21359.0
1698923913.3882813,21365.0
1698923913.4086752,21367.0
1698923913.4290695,21379.0
1698923913.4494636,21379.0
1698923913.4698577,21383.0
1698923913.490252,21386.0
1698923913.510646,21394.0
1698923913.53104,21404.0
1698923913.5514343,21400.0
1698923913.5718284,21409.0
1698923913.592223,21415.0
1698923913.6126168,21425.0
1698923913.6330106,21426.0
1698923913.653405,21423.0
1698923913.673799,21424.0
1698923913.6941931,21429.0
1698923913.7145875,21425.0
1698923913.7349815,21433.0
1698923913.7553754,21428.0
1698923913.7757697,21432.0
1698923913.7961638,21429.0
1698923913.8165581,21436.0
1698923913.836952,21434.0
1698923913.8573463,21438.0
1698923913.8777401,21439.0
1698923913.8981345,21444.0
1698923913.9185286,21449.0
1698923913.9389226,21452.0
1698923913.959317,21452.0
1698923913.979711,21453.0
1698923914.0001051,21457.0
1698923914.0204992,21468.0
1698923914.0408933,21466.0
1698923914.0612876,21477.0
1698923914.0816817,21472.0
1698923914.1020756,21474.0
1698923914.12247,21482.0
1698923914.142864,21484.0
1698923914.163258,21478.0
1698923914.1836524,21481.0
1698923914.2040465,21473.0
1698923914.2244403,21474.0
1698923914.2448347,21470.0
1698923914.2652287,21467.0
1698923914.2856228,21460.0
1698923914.3060172,21457.0
1698923914.3264112,21449.0
1698923914.3468053,21452.0
1698923914.3671997,21451.0
1698923914.3875935,21457.0
1698923914.4079878,21451.0
1698923914.428382,21454.0
1698923914.4487758,21461.0
1698923914.46917,21457.0
1698923914.4895642,21468.0
1698923914.5099585,21471.0
1698923914.5303524,21473.0
1698923914.5507467,21475.0
1698923914.5711405,21487.0
1698923914.5915349,21491.0
1698923914.611929,21493.0
1698923914.632323,21497.0
1698923914.6527174,21497.0
1698923914.6731112,21505.0
1698923914.6935053,21505.0
1698923914.7138996,21509.0
1698923914.7342937,21512.0
1698923914.754688,21518.0
1698923914.775082,21515.0
1698923914.795476,21522.0
1698923914.8158703,21519.0
1698923914.8362644,21514.0
1698923914.8566585,21529.0
1698923914.8770528,21525.0
1698923914.8974469,21531.0
1698923914.9178407,21526.0
1698923914.938235,21537.0
1698923914.9586291,21540.0
1698923914.9790232,21545.0
1698923914.9994175,21547.0
1698923915.0198116,21548.0
1698923915.0402055,21552.0
1698923915.0606,21561.0
1698923915.080994,21559.0
1698923915.1013882,21563.0
1698923915.1217823,21565.0
1698923915.1421766,21571.0
1698923915.1625705,21567.0
1698923915.1829646,21576.0
1698923915.2033587,21579.0
1698923915.223753,21578.0
1698923915.244147,21586.0
1698923915.264541,21587.0
1698923915.2849352,21582.0
1698923915.305329,21590.0
1698923915.3257234,21585.0
1698923915.3461177,21588.0
1698923915.3665118,21587.0
1698923915.3869057,21585.0
1698923915.4073,21585.0
1698923915.427694,21589.0
1698923915.4480884,21590.0
1698923915.4684825,21599.0
1698923915.4888766,21591.0
1698923915.5092707,21593.0
1698923915.5296648,21600.0
1698923915.5500588,21599.0
1698923915.5704532,21609.0
1698923915.5908473,21598.0
1698923915.611241,21605.0
1698923915.6316354,21609.0
1698923915.6520295,21612.0
1698923915.6724236,21614.0
1698923915.6928182,21614.0
1698923915.713212,21618.0
1698923915.7336059,21621.0
1698923915.7540002,21624.0
1698923915.7743943,21628.0
1698923915.7947884,21626.0
1698923915.8151827,21632.0
1698923915.835577,21629.0
1698923915.8559709,21629.0
1698923915.876365,21630.0
1698923915.896759,21627.0
1698923915.9171534,21622.0
1698923915.9375474,21633.0
1698923915.9579413,21630.0
1698923915.9783356,21635.0
1698923915.9987295,21636.0
1698923916.0191238,21638.0
1698923916.039518,21635.0
1698923916.0599122,21636.0
1698923916.080306,21642.0
1698923916.1007004,21641.0
1698923916.1210945,21644.0
1698923916.1414883,21645.0
1698923916.1618829,21649.0
1698923916.182277,21653.0
1698923916.202671,21651.0
1698923916.2230651,21654.0
1698923916.2434592,21655.0
1698923916.2638535,21657.0
1698923916.2842476,21662.0
1698923916.3046415,21661.0
1698923916.3250358,21664.0
1698923916.34543,21672.0
1698923916.365824,21673.0
1698923916.3862185,21668.0
1698923916.4066124,21669.0
1698923916.4270062,21668.0
1698923916.4474006,21664.0
1698923916.467795,21667.0
1698923916.4881887,21670.0
1698923916.508583,21666.0
1698923916.5289772,21674.0
1698923916.549371,21670.0
1698923916.5697653,21672.0
1698923916.5901594,21666.0
1698923916.6105537,21672.0
1698923916.6309478,21673.0
1698923916.651342,21672.0
1698923916.671736,21677.0
1698923916.6921299,21676.0
1698923916.7125242,21675.0
1698923916.7329185,21679.0
1698923916.7533126,21681.0
1698923916.7737062,21686.0
1698923916.7941008,21682.0
1698923916.8144948,21685.0
1698923916.834889,21684.0
1698923916.8552833,21685.0
1698923916.8756773,21689.0
1698923916.8960712,21694.0
1698923916.9164655,21689.0
1698923916.9368596,21693.0
1698923916.957254,21692.0
1698923916.977648,21691.0
1698923916.998042,21684.0
1698923917.0184362,21688.0
1698923917.0388303,21677.0
1698923917.0592244,21681.0
1698923917.079619,21685.0
1698923917.1000128,21685.0
1698923917.1204066,21690.0
1698923917.140801,21694.0
1698923917.161195,21684.0
1698923917.1815891,21693.0
1698923917.2019835,21693.0
1698923917.2223775,21692.0
1698923917.2427714,21697.0
1698923917.2631657,21692.0
1698923917.2835598,21693.0
1698923917.3039541,21693.0
1698923917.324348,21695.0
1698923917.3447423,21696.0
1698923917.3651364,21701.0
1698923917.3855305,21698.0
1698923917.4059246,21703.0
1698923917.426319,21698.0
1698923917.446713,21700.0
1698923917.4671068,21703.0
1698923917.4875011,21697.0
1698923917.5078952,21696.0
1698923917.5282893,21702.0
1698923917.5486836,21701.0
1698923917.5690777,21697.0
1698923917.5894716,21693.0
1698923917.609866,21693.0
1698923917.63026,21694.0
1698923917.650654,21695.0
1698923917.6710484,21689.0
1698923917.6914425,21691.0
1698923917.7118368,21697.0
1698923917.7322307,21694.0
1698923917.7526248,21696.0
1698923917.773019,21702.0
1698923917.7934132,21695.0
1698923917.813807,21690.0
1698923917.8342013,21695.0
1698923917.8545957,21693.0
1698923917.8749895,21695.0
1698923917.8953838,21690.0
1698923917.915778,21697.0
1698923917.936172,21697.0
1698923917.956566,21693.0
1698923917.9769602,21700.0
1698923917.9973543,21699.0
