timestamp,ppg
1698745575.001027,11563.0
1698745575.021438,11557.0
1698745575.0418484,11553.0
1698745575.062259,11545.0
1698745575.0826697,11540.0
1698745575.1030803,11536.0
1698745575.123491,11534.0
1698745575.1439016,11529.0
1698745575.1643121,11527.0
1698745575.184723,11530.0
1698745575.2051332,11536.0
1698745575.225544,11544.0
1698745575.2459545,11550.0
1698745575.2663653,11562.0
1698745575.2867758,11573.0
1698745575.3071864,11566.0
1698745575.327597,11565.0
1698745575.3480077,11570.0
1698745575.3684182,11568.0
1698745575.3888288,11569.0
1698745575.4092395,11565.0
1698745575.4296498,11563.0
1698745575.4500604,11565.0
1698745575.4704711,11559.0
1698745575.490882,11563.0
1698745575.5112925,11568.0
1698745575.5317032,11587.0
1698745575.5521135,11615.0
1698745575.572524,11641.0
1698745575.5929348,11657.0
1698745575.6133456,11677.0
1698745575.6337562,11689.0
1698745575.6541667,11702.0
1698745575.6745775,11711.0
1698745575.6949878,11742.0
1698745575.7153986,11758.0
1698745575.735809,11766.0
1698745575.7562194,11790.0
1698745575.7766304,11816.0
1698745575.797041,11841.0
1698745575.8174515,11866.0
1698745575.837862,11886.0
1698745575.8582728,11894.0
1698745575.878683,11909.0
1698745575.899094,11918.0
1698745575.9195046,11919.0
1698745575.939915,11905.0
1698745575.9603257,11904.0
1698745575.9807363,11902.0
1698745576.001147,11893.0
1698745576.0215576,11887.0
1698745576.0419686,11894.0
1698745576.062379,11893.0
1698745576.0827894,11899.0
1698745576.1032,11909.0
1698745576.1236105,11918.0
1698745576.1440213,11909.0
1698745576.1644318,11909.0
1698745576.1848423,11897.0
1698745576.205253,11895.0
1698745576.2256637,11884.0
1698745576.2460742,11868.0
1698745576.266485,11860.0
1698745576.2868955,11850.0
1698745576.307306,11833.0
1698745576.3277166,11834.0
1698745576.3481271,11821.0
1698745576.368538,11815.0
1698745576.3889484,11797.0
1698745576.4093592,11786.0
1698745576.4297698,11778.0
1698745576.4501805,11775.0
1698745576.4705908,11764.0
1698745576.4910016,11762.0
1698745576.5114121,11757.0
1698745576.5318227,11763.0
1698745576.5522335,11761.0
1698745576.572644,11759.0
1698745576.5930545,11754.0
1698745576.613465,11753.0
1698745576.6338754,11755.0
1698745576.6542864,11756.0
1698745576.674697,11767.0
1698745576.6951077,11767.0
1698745576.715518,11775.0
1698745576.7359288,11779.0
1698745576.7563393,11781.0
1698745576.77675,11792.0
1698745576.7971606,11787.0
1698745576.8175714,11786.0
1698745576.837982,11796.0
1698745576.8583922,11787.0
1698745576.878803,11785.0
1698745576.8992136,11783.0
1698745576.9196246,11781.0
1698745576.9400349,11779.0
1698745576.9604456,11779.0
1698745576.980856,11781.0
1698745577.0012667,11782.0
1698745577.0216773,11781.0
1698745577.0420878,11780.0
1698745577.0624983,11780.0
1698745577.082909,11781.0
1698745577.1033196,11779.0
1698745577.1237302,11785.0
1698745577.144141,11780.0
1698745577.1645515,11788.0
1698745577.1849623,11788.0
1698745577.2053728,11784.0
1698745577.2257833,11790.0
1698745577.246194,11791.0
1698745577.2666044,11794.0
1698745577.2870152,11794.0
1698745577.3074257,11797.0
1698745577.3278365,11795.0
1698745577.348247,11797.0
1698745577.3686578,11802.0
1698745577.3890681,11803.0
1698745577.4094787,11802.0
1698745577.4298894,11807.0
1698745577.4503,11809.0
1698745577.4707108,11803.0
1698745577.491121,11808.0
1698745577.5115316,11803.0
1698745577.5319424,11804.0
1698745577.5523531,11799.0
1698745577.5727637,11805.0
1698745577.5931742,11803.0
1698745577.613585,11800.0
1698745577.6339953,11794.0
1698745577.654406,11800.0
1698745577.6748168,11796.0
1698745577.6952274,11802.0
1698745577.715638,11804.0
1698745577.7360487,11808.0
1698745577.756459,11813.0
1698745577.7768695,11815.0
1698745577.7972806,11819.0
1698745577.8176908,11818.0
1698745577.8381016,11825.0
1698745577.8585122,11826.0
1698745577.8789227,11828.0
1698745577.8993332,11825.0
1698745577.919744,11827.0
1698745577.9401543,11838.0
1698745577.960565,11832.0
1698745577.9809759,11832.0
1698745578.0013864,11832.0
1698745578.021797,11830.0
1698745578.0422075,11845.0
1698745578.0626183,11843.0
1698745578.0830288,11847.0
1698745578.1034398,11854.0
1698745578.12385,11855.0
1698745578.1442604,11859.0
1698745578.1646712,11864.0
1698745578.1850817,11858.0
1698745578.2054925,11858.0
1698745578.225903,11857.0
1698745578.2463138,11850.0
1698745578.266724,11855.0
1698745578.2871346,11831.0
1698745578.3075454,11820.0
1698745578.327956,11812.0
1698745578.3483667,11809.0
1698745578.368777,11800.0
1698745578.389188,11802.0
1698745578.4095984,11805.0
1698745578.4300091,11801.0
1698745578.4504197,11814.0
1698745578.4708304,11819.0
1698745578.491241,11825.0
1698745578.5116515,11833.0
1698745578.532062,11833.0
1698745578.5524728,11837.0
1698745578.5728834,11836.0
1698745578.593294,11837.0
1698745578.6137047,11828.0
1698745578.6341152,11841.0
1698745578.654526,11848.0
1698745578.6749363,11859.0
1698745578.6953468,11869.0
1698745578.7157576,11889.0
1698745578.7361681,11915.0
1698745578.756579,11945.0
1698745578.7769895,11967.0
1698745578.7974,11967.0
1698745578.8178103,11964.0
1698745578.838221,11973.0
1698745578.8586318,11974.0
1698745578.8790424,11971.0
1698745578.8994532,11958.0
1698745578.9198635,11923.0
1698745578.9402742,11868.0
1698745578.9606848,11823.0
1698745578.9810958,11800.0
1698745579.001506,11796.0
1698745579.0219169,11794.0
1698745579.0423274,11807.0
1698745579.0627377,11810.0
1698745579.0831485,11814.0
1698745579.103559,11831.0
1698745579.1239696,11833.0
1698745579.1443803,11840.0
1698745579.164791,11840.0
1698745579.1852014,11836.0
1698745579.205612,11845.0
1698745579.2260227,11842.0
1698745579.246433,11848.0
1698745579.266844,11863.0
1698745579.2872546,11867.0
1698745579.307665,11871.0
1698745579.3280756,11884.0
1698745579.3484864,11899.0
1698745579.368897,11898.0
1698745579.3893075,11915.0
1698745579.4097185,11916.0
1698745579.4301288,11916.0
1698745579.4505394,11922.0
1698745579.47095,11924.0
1698745579.4913607,11921.0
1698745579.5117712,11927.0
1698745579.532182,11931.0
1698745579.5525923,11939.0
1698745579.5730028,11932.0
1698745579.5934136,11948.0
1698745579.6138241,11946.0
1698745579.634235,11943.0
1698745579.6546454,11946.0
1698745579.6750562,11944.0
1698745579.6954665,11948.0
1698745579.7158773,11946.0
1698745579.7362878,11945.0
1698745579.7566984,11943.0
1698745579.7771091,11942.0
1698745579.7975197,11948.0
1698745579.8179305,11950.0
1698745579.8383408,11953.0
1698745579.8587518,11950.0
1698745579.879162,11951.0
1698745579.8995728,11955.0
1698745579.9199834,11949.0
1698745579.940394,11953.0
1698745579.9608045,11954.0
1698745579.981215,11953.0
1698745580.0016255,11957.0
1698745580.0220363,11952.0
1698745580.042447,11958.0
1698745580.0628576,11960.0
1698745580.0832682,11954.0
1698745580.1036787,11955.0
1698745580.1240892,11962.0
1698745580.1445,11957.0
1698745580.1649106,11960.0
1698745580.1853213,11966.0
1698745580.2057319,11966.0
1698745580.2261424,11956.0
1698745580.246553,11960.0
1698745580.2669637,11961.0
1698745580.2873745,11964.0
1698745580.3077848,11959.0
1698745580.3281956,11956.0
1698745580.3486059,11958.0
1698745580.3690166,11960.0
1698745580.3894272,11960.0
1698745580.409838,11950.0
1698745580.4302483,11945.0
1698745580.4506593,11944.0
1698745580.4710696,11940.0
1698745580.49148,11938.0
1698745580.511891,11937.0
1698745580.5323014,11930.0
1698745580.5527122,11924.0
1698745580.5731227,11927.0
1698745580.5935335,11921.0
1698745580.6139438,11912.0
1698745580.6343546,11901.0
1698745580.6547651,11897.0
1698745580.6751757,11901.0
1698745580.6955864,11902.0
1698745580.715997,11909.0
1698745580.7364078,11897.0
1698745580.756818,11905.0
1698745580.7772288,11912.0
1698745580.7976394,11908.0
1698745580.8180501,11910.0
1698745580.8384607,11910.0
1698745580.858871,11914.0
1698745580.8792815,11910.0
1698745580.8996923,11914.0
1698745580.920103,11911.0
1698745580.9405136,11917.0
1698745580.9609244,11919.0
1698745580.981335,11920.0
1698745581.0017455,11929.0
1698745581.022156,11941.0
1698745581.0425668,11952.0
1698745581.0629773,11969.0
1698745581.0833879,11987.0
1698745581.1037986,12023.0
1698745581.124209,12103.0
1698745581.1446197,12233.0
1698745581.1650305,12298.0
1698745581.185441,12334.0
1698745581.2058516,12311.0
1698745581.226262,12312.0
1698745581.2466726,12294.0
1698745581.2670832,12277.0
1698745581.287494,12256.0
1698745581.3079042,12238.0
1698745581.3283153,12221.0
1698745581.3487258,12204.0
1698745581.3691366,12197.0
1698745581.3895469,12194.0
1698745581.4099574,12181.0
1698745581.4303682,12180.0
1698745581.4507787,12179.0
1698745581.4711897,12176.0
1698745581.4916,12178.0
1698745581.5120106,12180.0
1698745581.532421,12184.0
1698745581.552832,12189.0
1698745581.5732424,12205.0
1698745581.593653,12206.0
1698745581.6140637,12211.0
1698745581.634474,12198.0
1698745581.6548848,12187.0
1698745581.6752954,12183.0
1698745581.6957061,12170.0
1698745581.7161167,12175.0
1698745581.7365272,12180.0
1698745581.756938,12190.0
1698745581.7773483,12186.0
1698745581.797759,12180.0
1698745581.8181696,12180.0
1698745581.8385804,12178.0
1698745581.858991,12175.0
1698745581.8794017,12168.0
1698745581.899812,12162.0
1698745581.920223,12157.0
1698745581.9406333,12162.0
1698745581.9610438,12150.0
1698745581.9814546,12147.0
1698745582.0018651,12142.0
1698745582.022276,12142.0
1698745582.0426862,12139.0
1698745582.063097,12138.0
1698745582.0835075,12133.0
1698745582.1039183,12128.0
1698745582.1243289,12121.0
1698745582.1447394,12123.0
1698745582.16515,12115.0
1698745582.1855602,12115.0
1698745582.2059712,12111.0
1698745582.2263818,12108.0
1698745582.2467926,12109.0
1698745582.267203,12108.0
1698745582.2876136,12099.0
1698745582.3080242,12110.0
1698745582.3284347,12109.0
1698745582.3488457,12107.0
1698745582.369256,12108.0
1698745582.3896668,12111.0
1698745582.4100773,12112.0
1698745582.4304879,12108.0
1698745582.4508984,12113.0
1698745582.4713092,12118.0
1698745582.4917195,12105.0
1698745582.5121303,12100.0
1698745582.532541,12096.0
1698745582.5529513,12091.0
1698745582.573362,12093.0
1698745582.5937726,12080.0
1698745582.6141832,12085.0
1698745582.634594,12082.0
1698745582.6550047,12079.0
1698745582.675415,12070.0
1698745582.6958256,12062.0
1698745582.7162364,12058.0
1698745582.736647,12059.0
1698745582.7570577,12061.0
1698745582.7774684,12052.0
1698745582.797879,12063.0
1698745582.8182893,12067.0
1698745582.8387,12066.0
1698745582.8591106,12070.0
1698745582.8795211,12072.0
1698745582.899932,12072.0
1698745582.9203422,12068.0
1698745582.940753,12079.0
1698745582.9611635,12074.0
1698745582.9815743,12079.0
1698745583.0019848,12079.0
1698745583.0223956,12075.0
1698745583.0428061,12068.0
1698745583.0632164,12068.0
1698745583.0836272,12067.0
1698745583.1040378,12068.0
1698745583.1244485,12069.0
1698745583.144859,12065.0
1698745583.1652699,12064.0
1698745583.1856804,12048.0
1698745583.206091,12037.0
1698745583.2265017,12027.0
1698745583.246912,12022.0
1698745583.2673228,12009.0
1698745583.2877333,12003.0
1698745583.308144,12000.0
1698745583.3285544,11994.0
1698745583.3489652,11986.0
1698745583.3693755,11986.0
1698745583.3897865,11985.0
1698745583.410197,11978.0
1698745583.4306076,11984.0
1698745583.451018,11986.0
1698745583.4714286,11984.0
1698745583.4918394,11983.0
1698745583.51225,11984.0
1698745583.5326607,11983.0
1698745583.5530713,11979.0
1698745583.573482,11985.0
1698745583.5938923,11984.0
1698745583.6143029,11983.0
1698745583.6347136,11980.0
1698745583.6551244,11986.0
1698745583.675535,11982.0
1698745583.6959455,11970.0
1698745583.716356,11975.0
1698745583.7367666,11973.0
1698745583.7571774,11976.0
1698745583.777588,11982.0
1698745583.7979982,11973.0
1698745583.8184092,11980.0
1698745583.8388195,11978.0
1698745583.8592303,11978.0
1698745583.8796408,11982.0
1698745583.9000516,11970.0
1698745583.9204621,11968.0
1698745583.940873,11964.0
1698745583.9612834,11962.0
1698745583.9816937,11961.0
1698745584.0021045,11955.0
1698745584.022515,11961.0
1698745584.0429258,11957.0
1698745584.0633364,11946.0
1698745584.0837471,11956.0
1698745584.1041577,11956.0
1698745584.1245682,11950.0
1698745584.1449788,11951.0
1698745584.1653893,11949.0
1698745584.1858,11953.0
1698745584.2062106,11953.0
1698745584.2266212,11948.0
1698745584.2470315,11943.0
1698745584.2674425,11939.0
1698745584.287853,11932.0
1698745584.3082638,11937.0
1698745584.3286743,11928.0
1698745584.3490849,11927.0
1698745584.3694954,11923.0
1698745584.389906,11919.0
1698745584.410317,11919.0
1698745584.4307272,11923.0
1698745584.451138,11923.0
1698745584.4715486,11919.0
1698745584.491959,11916.0
1698745584.5123696,11920.0
1698745584.5327804,11915.0
1698745584.553191,11907.0
1698745584.5736015,11913.0
1698745584.5940123,11909.0
1698745584.6144226,11905.0
1698745584.6348333,11907.0
1698745584.6552439,11899.0
1698745584.6756544,11888.0
1698745584.6960652,11889.0
1698745584.7164757,11879.0
1698745584.7368865,11876.0
1698745584.7572968,11861.0
1698745584.7777076,11856.0
1698745584.798118,11849.0
1698745584.818529,11850.0
1698745584.8389397,11838.0
1698745584.8593502,11842.0
1698745584.8797605,11844.0
1698745584.900171,11848.0
1698745584.9205818,11850.0
1698745584.9409924,11854.0
1698745584.9614031,11859.0
1698745584.9818137,11867.0
1698745585.0022242,11875.0
1698745585.0226347,11876.0
1698745585.0430455,11882.0
1698745585.063456,11890.0
1698745585.0838666,11888.0
1698745585.1042771,11889.0
1698745585.124688,11894.0
1698745585.1450984,11893.0
1698745585.165509,11891.0
1698745585.1859198,11882.0
1698745585.2063303,11875.0
1698745585.226741,11863.0
1698745585.2471516,11860.0
1698745585.267562,11846.0
1698745585.287973,11837.0
1698745585.3083832,11837.0
1698745585.328794,11823.0
1698745585.3492045,11818.0
1698745585.3696153,11819.0
1698745585.3900259,11816.0
1698745585.4104364,11814.0
1698745585.430847,11812.0
1698745585.4512575,11804.0
1698745585.4716682,11802.0
1698745585.4920788,11803.0
1698745585.5124896,11813.0
1698745585.5328999,11809.0
1698745585.5533104,11810.0
1698745585.5737212,11809.0
1698745585.594132,11815.0
1698745585.6145425,11821.0
1698745585.634953,11832.0
1698745585.6553636,11829.0
1698745585.675774,11835.0
1698745585.6961849,11834.0
1698745585.7165956,11838.0
1698745585.7370062,11837.0
1698745585.7574167,11842.0
1698745585.7778275,11844.0
1698745585.7982378,11838.0
1698745585.8186483,11822.0
1698745585.839059,11812.0
1698745585.8594694,11793.0
1698745585.8798804,11795.0
1698745585.900291,11781.0
1698745585.9207015,11774.0
1698745585.941112,11766.0
1698745585.9615228,11758.0
1698745585.981933,11758.0
1698745586.002344,11765.0
1698745586.0227547,11763.0
1698745586.043165,11763.0
1698745586.0635757,11768.0
1698745586.0839863,11779.0
1698745586.104397,11790.0
1698745586.1248076,11794.0
1698745586.1452186,11803.0
1698745586.165629,11807.0
1698745586.1860392,11810.0
1698745586.20645,11811.0
1698745586.2268605,11817.0
1698745586.2472713,11818.0
1698745586.2676818,11818.0
1698745586.2880924,11818.0
1698745586.308503,11825.0
1698745586.3289137,11828.0
1698745586.3493242,11826.0
1698745586.3697348,11824.0
1698745586.3901455,11825.0
1698745586.410556,11826.0
1698745586.4309666,11829.0
1698745586.4513772,11820.0
1698745586.471788,11816.0
1698745586.4921985,11804.0
1698745586.5126092,11792.0
1698745586.5330198,11794.0
1698745586.5534303,11788.0
1698745586.5738409,11797.0
1698745586.5942516,11803.0
1698745586.6146622,11820.0
1698745586.6350727,11831.0
1698745586.6554835,11840.0
1698745586.675894,11843.0
1698745586.6963046,11841.0
1698745586.716715,11835.0
1698745586.7371254,11824.0
1698745586.7575364,11823.0
1698745586.777947,11813.0
1698745586.7983577,11801.0
1698745586.818768,11802.0
1698745586.8391788,11798.0
1698745586.8595893,11796.0
1698745586.9004107,11794.0
1698745586.9208212,11800.0
1698745586.941232,11799.0
1698745586.9616423,11804.0
1698745586.982053,11803.0
1698745587.0024636,11804.0
1698745587.0228746,11803.0
1698745587.043285,11808.0
1698745587.0636957,11809.0
1698745587.084106,11815.0
1698745587.1045165,11822.0
1698745587.1249273,11825.0
1698745587.1453378,11825.0
1698745587.1657484,11817.0
1698745587.1861591,11812.0
1698745587.2065697,11805.0
1698745587.2269802,11799.0
1698745587.247391,11783.0
1698745587.2678015,11785.0
1698745587.288212,11776.0
1698745587.3086228,11782.0
1698745587.3290334,11784.0
1698745587.349444,11781.0
1698745587.3698545,11783.0
1698745587.3902652,11782.0
1698745587.4106758,11783.0
1698745587.4310865,11782.0
1698745587.451497,11774.0
1698745587.4719076,11776.0
1698745587.4923182,11770.0
1698745587.5127287,11772.0
1698745587.5331395,11768.0
1698745587.55355,11763.0
1698745587.5739608,11764.0
1698745587.594371,11771.0
1698745587.6147814,11777.0
1698745587.6351924,11771.0
1698745587.655603,11782.0
1698745587.6760137,11785.0
1698745587.6964242,11787.0
1698745587.716835,11791.0
1698745587.7372453,11783.0
1698745587.757656,11784.0
1698745587.7780669,11787.0
1698745587.7984774,11779.0
1698745587.818888,11780.0
1698745587.8392985,11781.0
1698745587.859709,11779.0
1698745587.8801196,11775.0
1698745587.9005306,11772.0
1698745587.9209409,11772.0
1698745587.9413517,11778.0
1698745587.9617622,11774.0
1698745587.9821725,11765.0
1698745588.0025833,11762.0
1698745588.0229938,11767.0
1698745588.0434043,11765.0
1698745588.063815,11777.0
1698745588.084226,11778.0
1698745588.1046364,11792.0
1698745588.125047,11808.0
1698745588.1454575,11824.0
1698745588.1658683,11827.0
1698745588.1862788,11837.0
1698745588.2066896,11842.0
1698745588.2271001,11836.0
1698745588.2475104,11845.0
1698745588.2679212,11845.0
1698745588.2883317,11848.0
1698745588.3087425,11841.0
1698745588.329153,11846.0
1698745588.3495638,11842.0
1698745588.3699741,11838.0
1698745588.3903847,11836.0
1698745588.4107955,11842.0
1698745588.431206,11840.0
1698745588.4516168,11820.0
1698745588.472027,11819.0
1698745588.492438,11825.0
1698745588.5128484,11807.0
1698745588.533259,11810.0
1698745588.5536697,11808.0
1698745588.5740802,11802.0
1698745588.594491,11809.0
1698745588.6149015,11818.0
1698745588.635312,11829.0
1698745588.6557229,11841.0
1698745588.6761334,11852.0
1698745588.696544,11854.0
1698745588.7169547,11842.0
1698745588.7373652,11833.0
1698745588.7577758,11834.0
1698745588.7781863,11828.0
1698745588.7985969,11820.0
1698745588.8190076,11827.0
1698745588.8394182,11829.0
1698745588.859829,11828.0
1698745588.8802395,11831.0
1698745588.9006498,11823.0
1698745588.9210603,11817.0
1698745588.941471,11814.0
1698745588.9618819,11813.0
1698745588.9822924,11808.0
1698745589.0027032,11803.0
1698745589.0231135,11798.0
1698745589.0435243,11794.0
1698745589.0639348,11793.0
1698745589.0843458,11794.0
1698745589.104756,11787.0
1698745589.1251667,11789.0
1698745589.1455774,11791.0
1698745589.1659877,11787.0
1698745589.1863985,11791.0
1698745589.206809,11793.0
1698745589.2272196,11798.0
1698745589.2476304,11795.0
1698745589.2680411,11806.0
1698745589.2884514,11825.0
1698745589.308862,11841.0
1698745589.3292727,11856.0
1698745589.349683,11866.0
1698745589.370094,11868.0
1698745589.3905046,11865.0
1698745589.4109151,11868.0
1698745589.4313257,11877.0
1698745589.4517362,11889.0
1698745589.472147,11902.0
1698745589.4925575,11905.0
1698745589.5129685,11917.0
1698745589.5333788,11925.0
1698745589.5537894,11934.0
1698745589.5742,11944.0
1698745589.5946107,11938.0
1698745589.6150212,11936.0
1698745589.6354318,11946.0
1698745589.6558423,11944.0
1698745589.6762528,11952.0
1698745589.6966636,11962.0
1698745589.7170742,11960.0
1698745589.737485,11959.0
1698745589.7578955,11959.0
1698745589.7783062,11945.0
1698745589.7987165,11935.0
1698745589.819127,11921.0
1698745589.8395379,11909.0
1698745589.8599484,11900.0
1698745589.8803592,11892.0
1698745589.9007697,11895.0
1698745589.9211805,11888.0
1698745589.9415908,11886.0
1698745589.9620018,11880.0
1698745589.982412,11890.0
1698745590.0028226,11883.0
1698745590.0232334,11888.0
1698745590.043644,11885.0
1698745590.0640545,11892.0
1698745590.084465,11899.0
1698745590.1048756,11894.0
1698745590.1252863,11897.0
1698745590.145697,11896.0
1698745590.1661077,11900.0
1698745590.186518,11900.0
1698745590.2069287,11920.0
1698745590.2273393,11927.0
1698745590.24775,11940.0
1698745590.2681606,11935.0
1698745590.2885714,11938.0
1698745590.308982,11945.0
1698745590.3293924,11950.0
1698745590.349803,11952.0
1698745590.3702135,11947.0
1698745590.3906245,11941.0
1698745590.4110348,11941.0
1698745590.4314456,11938.0
1698745590.451856,11926.0
1698745590.4722667,11930.0
1698745590.4926772,11931.0
1698745590.513088,11930.0
1698745590.5334983,11933.0
1698745590.553909,11937.0
1698745590.5743196,11929.0
1698745590.5947301,11934.0
1698745590.615141,11927.0
1698745590.6355515,11929.0
1698745590.6559622,11930.0
1698745590.6763728,11928.0
1698745590.6967835,11928.0
1698745590.7171938,11934.0
1698745590.7376044,11934.0
1698745590.7580152,11941.0
1698745590.7784257,11950.0
1698745590.7988365,11947.0
1698745590.819247,11945.0
1698745590.8396578,11950.0
1698745590.860068,11947.0
1698745590.8804789,11951.0
1698745590.9008894,11952.0
1698745590.9213,11958.0
1698745590.9417107,11957.0
1698745590.962121,11962.0
1698745590.9825315,11956.0
1698745591.0029423,11944.0
1698745591.023353,11932.0
1698745591.0437636,11941.0
1698745591.0641744,11936.0
1698745591.084585,11930.0
1698745591.1049953,11933.0
1698745591.125406,11931.0
1698745591.1458168,11932.0
1698745591.1662273,11937.0
1698745591.1866379,11938.0
1698745591.2070487,11945.0
1698745591.227459,11948.0
1698745591.2478697,11953.0
1698745591.2682805,11959.0
1698745591.2886908,11963.0
1698745591.3091016,11973.0
1698745591.3295121,11973.0
1698745591.3499227,11976.0
1698745591.3703332,11981.0
1698745591.390744,11986.0
1698745591.4111543,11994.0
1698745591.4315653,12001.0
1698745591.4519758,12007.0
1698745591.4723864,12007.0
1698745591.492797,12016.0
1698745591.5132074,12032.0
1698745591.5336182,12037.0
1698745591.5540287,12045.0
1698745591.5744398,12048.0
1698745591.59485,12049.0
1698745591.6152606,12057.0
1698745591.6356711,12053.0
1698745591.6560817,12052.0
1698745591.6764925,12045.0
1698745591.696903,12046.0
1698745591.7173138,12044.0
1698745591.737724,12037.0
1698745591.7581348,12043.0
1698745591.7785454,12040.0
1698745591.7989562,12047.0
1698745591.8193667,12055.0
1698745591.839777,12049.0
1698745591.860188,12046.0
1698745591.8805983,12045.0
1698745591.901009,12041.0
1698745591.9214196,12040.0
1698745591.9418304,12037.0
1698745591.962241,12032.0
1698745591.9826517,12027.0
1698745592.003062,12020.0
1698745592.0234728,12018.0
1698745592.0438833,12006.0
1698745592.0642939,11998.0
1698745592.0847046,12001.0
1698745592.1051152,12003.0
1698745592.125526,12005.0
1698745592.1459363,12004.0
1698745592.166347,12015.0
1698745592.1867576,12018.0
1698745592.207168,12016.0
1698745592.2275789,12020.0
1698745592.2479894,12024.0
1698745592.2684,12024.0
1698745592.2888103,12017.0
1698745592.3092213,12023.0
1698745592.3296318,12032.0
1698745592.3500426,12032.0
1698745592.3704531,12034.0
1698745592.3908634,12030.0
1698745592.4112742,12021.0
1698745592.4316847,12018.0
1698745592.4520957,12022.0
1698745592.472506,12018.0
1698745592.4929168,12019.0
1698745592.5133274,12025.0
1698745592.533738,12026.0
1698745592.5541484,12024.0
1698745592.574559,12024.0
1698745592.5949695,12018.0
1698745592.6153803,12022.0
1698745592.635791,12024.0
1698745592.6562014,12023.0
1698745592.6766121,12012.0
1698745592.6970227,11997.0
1698745592.7174332,12003.0
1698745592.737844,12003.0
1698745592.7582545,11998.0
1698745592.778665,12009.0
1698745592.7990756,12005.0
1698745592.8194864,12004.0
1698745592.839897,12019.0
1698745592.8603077,12012.0
1698745592.8807185,12012.0
1698745592.901129,12010.0
1698745592.9215393,12008.0
1698745592.9419498,12005.0
1698745592.9623606,12007.0
1698745592.9827712,11999.0
1698745593.003182,11998.0
1698745593.0235922,11991.0
1698745593.044003,11987.0
1698745593.0644135,11983.0
1698745593.0848243,11981.0
1698745593.1052349,11981.0
1698745593.1256454,11977.0
1698745593.1460562,11984.0
1698745593.1664665,11990.0
1698745593.1868773,11985.0
1698745593.2072878,11992.0
1698745593.2276986,11998.0
1698745593.248109,11994.0
1698745593.2685199,11994.0
1698745593.2889304,11992.0
1698745593.3093407,11988.0
1698745593.3297517,11991.0
1698745593.350162,11989.0
1698745593.3705728,11986.0
1698745593.3909833,11985.0
1698745593.4113941,11984.0
1698745593.4318044,11989.0
1698745593.4522152,11994.0
1698745593.4726255,12001.0
1698745593.4930363,12004.0
1698745593.513447,12001.0
1698745593.5338576,12001.0
1698745593.5542681,11999.0
1698745593.5746787,12001.0
1698745593.5950894,11994.0
1698745593.6155,11990.0
1698745593.6359107,11977.0
1698745593.6563213,11978.0
1698745593.6767318,11974.0
1698745593.6971424,11970.0
1698745593.717553,11967.0
1698745593.7379637,11964.0
1698745593.7583745,11960.0
1698745593.778785,11955.0
1698745593.7991955,11957.0
1698745593.819606,11965.0
1698745593.8400166,11961.0
1698745593.8604271,11957.0
1698745593.880838,11958.0
1698745593.9012482,11961.0
1698745593.9216592,11960.0
1698745593.9420695,11962.0
1698745593.9624803,11957.0
1698745593.9828908,11958.0
1698745594.0033016,11961.0
1698745594.0237122,11963.0
1698745594.0441227,11965.0
1698745594.0645335,11971.0
1698745594.0849438,11970.0
1698745594.1053545,11969.0
1698745594.125765,11979.0
1698745594.1461759,11970.0
1698745594.1665864,11980.0
1698745594.1869972,11975.0
1698745594.2074077,11975.0
1698745594.227818,11968.0
1698745594.2482288,11964.0
1698745594.2686393,11965.0
1698745594.28905,11969.0
1698745594.3094606,11964.0
1698745594.3298712,11969.0
1698745594.3502815,11970.0
1698745594.3706925,11964.0
1698745594.391103,11957.0
1698745594.4115136,11959.0
1698745594.4319243,11957.0
1698745594.452335,11967.0
1698745594.4727454,11963.0
1698745594.493156,11972.0
1698745594.513567,11980.0
1698745594.5339773,12014.0
1698745594.554388,12024.0
1698745594.5747986,12034.0
1698745594.595209,12042.0
1698745594.6156197,12039.0
1698745594.6360304,12049.0
1698745594.656441,12053.0
1698745594.6768515,12055.0
1698745594.6972623,12061.0
1698745594.7176726,12067.0
1698745594.7380834,12071.0
1698745594.758494,12070.0
1698745594.7789042,12073.0
1698745594.7993152,12074.0
1698745594.8197258,12084.0
1698745594.8401365,12082.0
1698745594.8605468,12081.0
1698745594.8809576,12080.0
1698745594.9013681,12076.0
1698745594.921779,12085.0
1698745594.9421897,12092.0
1698745594.9626,12099.0
1698745594.9830105,12107.0
1698745595.003421,12119.0
1698745595.0238318,12115.0
1698745595.0442424,12114.0
1698745595.0646532,12105.0
1698745595.0850637,12091.0
1698745595.1054742,12090.0
1698745595.1258848,12087.0
1698745595.1462953,12078.0
1698745595.166706,12076.0
1698745595.1871166,12085.0
1698745595.2075272,12083.0
1698745595.227938,12087.0
1698745595.2483485,12084.0
1698745595.268759,12089.0
1698745595.2891698,12093.0
1698745595.3095803,12089.0
1698745595.3299909,12083.0
1698745595.3504016,12081.0
1698745595.370812,12076.0
1698745595.391223,12077.0
1698745595.4116333,12085.0
1698745595.432044,12093.0
1698745595.4524546,12100.0
1698745595.4728653,12089.0
1698745595.493276,12080.0
1698745595.5136862,12089.0
1698745595.534097,12096.0
1698745595.5545075,12099.0
1698745595.5749183,12117.0
1698745595.5953288,12132.0
1698745595.6157396,12141.0
1698745595.63615,12145.0
1698745595.6565604,12144.0
1698745595.6769712,12142.0
1698745595.6973817,12140.0
1698745595.7177925,12138.0
1698745595.738203,12126.0
1698745595.7586136,12121.0
1698745595.7790241,12125.0
1698745595.799435,12121.0
1698745595.8198457,12116.0
1698745595.8402562,12119.0
1698745595.8606668,12112.0
1698745595.8810773,12114.0
1698745595.9014878,12107.0
1698745595.9218984,12104.0
1698745595.9423091,12088.0
1698745595.9627194,12086.0
1698745595.9831305,12077.0
1698745596.003541,12069.0
1698745596.0239515,12069.0
1698745596.044362,12061.0
1698745596.0647726,12068.0
1698745596.0851831,12062.0
1698745596.105594,12061.0
1698745596.1260047,12060.0
1698745596.146415,12052.0
1698745596.1668258,12069.0
1698745596.1872363,12051.0
1698745596.207647,12050.0
1698745596.2280576,12047.0
1698745596.2484684,12052.0
1698745596.268879,12044.0
1698745596.2892892,12038.0
1698745596.3097,12038.0
1698745596.3301105,12037.0
1698745596.3505213,12038.0
1698745596.3709319,12033.0
1698745596.3913424,12023.0
1698745596.411753,12021.0
1698745596.4321635,12019.0
1698745596.4525743,12020.0
1698745596.4729848,12020.0
1698745596.4933956,12013.0
1698745596.513806,12017.0
1698745596.5342166,12004.0
1698745596.5546272,12007.0
1698745596.575038,12007.0
1698745596.5954485,12007.0
1698745596.615859,12002.0
1698745596.6362698,12006.0
1698745596.6566803,12008.0
1698745596.677091,12011.0
1698745596.6975017,12012.0
1698745596.7179122,12017.0
1698745596.7383227,12024.0
1698745596.7587335,12021.0
1698745596.779144,12020.0
1698745596.7995543,12025.0
1698745596.8199651,12027.0
1698745596.8403754,12025.0
1698745596.8607864,12024.0
1698745596.881197,12026.0
1698745596.9016078,12025.0
1698745596.922018,12023.0
1698745596.9424288,12026.0
1698745596.9628394,12009.0
1698745596.98325,12023.0
1698745597.0036607,12018.0
1698745597.0240712,12023.0
1698745597.044482,12016.0
1698745597.0648923,12023.0
1698745597.085303,12016.0
1698745597.1057136,12014.0
1698745597.1261246,12023.0
1698745597.146535,12016.0
1698745597.1669455,12011.0
1698745597.187356,12003.0
1698745597.2077665,11999.0
1698745597.2281773,11993.0
1698745597.2485878,11984.0
1698745597.2689984,11979.0
1698745597.2894092,11972.0
1698745597.3098197,11973.0
1698745597.3302302,11965.0
1698745597.3506408,11973.0
1698745597.3710515,11973.0
1698745597.391462,11971.0
1698745597.4118729,11970.0
1698745597.4322834,11965.0
1698745597.452694,11961.0
1698745597.4731045,11963.0
1698745597.4935153,11964.0
1698745597.5139258,11959.0
1698745597.5343363,11960.0
1698745597.554747,11955.0
1698745597.5751576,11951.0
1698745597.5955682,11950.0
1698745597.6159787,11944.0
1698745597.6363895,11942.0
1698745597.6568,11938.0
1698745597.6772108,11931.0
1698745597.697621,11932.0
1698745597.7180314,11933.0
1698745597.7384424,11930.0
1698745597.758853,11928.0
1698745597.7792637,11926.0
1698745597.7996743,11923.0
1698745597.820085,11922.0
1698745597.8404953,11932.0
1698745597.8609061,11930.0
1698745597.881317,11933.0
1698745597.9017272,11933.0
1698745597.922138,11925.0
1698745597.9425485,11931.0
1698745597.962959,11931.0
1698745597.9833696,11934.0
1698745598.0037806,11924.0
1698745598.024191,11932.0
1698745598.0446017,11934.0
1698745598.0650122,11944.0
1698745598.0854225,11952.0
1698745598.1058333,11958.0
1698745598.1262438,11957.0
1698745598.1466544,11959.0
1698745598.1670651,11961.0
1698745598.187476,11953.0
1698745598.2078865,11955.0
1698745598.2282968,11949.0
1698745598.2487075,11948.0
1698745598.269118,11952.0
1698745598.2895288,11955.0
1698745598.3099396,11955.0
1698745598.3303502,11959.0
1698745598.3507605,11956.0
1698745598.3711712,11953.0
1698745598.3915818,11948.0
1698745598.4119925,11949.0
1698745598.432403,11953.0
1698745598.4528136,11959.0
1698745598.4732242,11958.0
1698745598.4936347,11968.0
1698745598.5140455,11958.0
1698745598.534456,11958.0
1698745598.5548668,11964.0
1698745598.575277,11965.0
1698745598.595688,11971.0
1698745598.6160984,11966.0
1698745598.636509,11974.0
1698745598.6569197,11979.0
1698745598.6773303,11985.0
1698745598.697741,11996.0
1698745598.7181516,11995.0
1698745598.738562,12006.0
1698745598.758973,11993.0
1698745598.7793832,12000.0
1698745598.799794,12004.0
1698745598.8202045,11993.0
1698745598.8406153,11996.0
1698745598.8610258,11998.0
1698745598.8814363,11990.0
1698745598.901847,11997.0
1698745598.9222577,11993.0
1698745598.9426682,11992.0
1698745598.963079,11983.0
1698745598.9834895,11985.0
1698745599.0038998,11984.0
1698745599.0243104,11978.0
1698745599.0447211,11979.0
1698745599.065132,11975.0
1698745599.0855424,11962.0
1698745599.1059532,11968.0
1698745599.1263635,11974.0
1698745599.146774,11966.0
1698745599.1671848,11978.0
1698745599.1875956,11974.0
1698745599.2080061,11981.0
1698745599.2284167,11985.0
1698745599.2488275,11986.0
1698745599.2692378,11984.0
1698745599.2896485,11980.0
1698745599.310059,11993.0
1698745599.3304694,11989.0
1698745599.3508804,11993.0
1698745599.371291,11994.0
1698745599.3917015,11991.0
1698745599.412112,11984.0
1698745599.4325228,11985.0
1698745599.452933,11984.0
1698745599.473344,11983.0
1698745599.4937546,11987.0
1698745599.514165,11983.0
1698745599.5345757,11990.0
1698745599.5549862,11985.0
1698745599.575397,11981.0
1698745599.5958076,11976.0
1698745599.6162186,11983.0
1698745599.6366289,11981.0
1698745599.6570394,11986.0
1698745599.67745,11980.0
1698745599.6978605,11979.0
1698745599.7182713,11977.0
1698745599.7386818,11981.0
1698745599.7590923,11978.0
1698745599.7795029,11983.0
1698745599.7999136,11986.0
1698745599.8203242,11984.0
1698745599.840735,11979.0
1698745599.8611455,11979.0
1698745599.881556,11977.0
1698745599.9019666,11980.0
1698745599.922377,11982.0
1698745599.942788,11973.0
1698745599.9631984,11979.0
1698745599.9836092,11984.0
1698745600.0040197,11978.0
1698745600.0244305,11992.0
1698745600.0448408,11996.0
1698745600.0652518,11985.0
1698745600.0856621,11980.0
1698745600.1060727,11982.0
1698745600.1264834,11979.0
1698745600.146894,11986.0
1698745600.1673045,11981.0
1698745600.187715,11977.0
1698745600.2081256,11977.0
1698745600.2285364,11974.0
1698745600.248947,11970.0
1698745600.2693577,11974.0
1698745600.289768,11966.0
1698745600.3101788,11970.0
1698745600.3305893,11971.0
1698745600.3714106,11966.0
1698745600.3918214,11957.0
1698745600.412232,11951.0
1698745600.4326422,11943.0
1698745600.453053,11942.0
1698745600.4734635,11940.0
1698745600.4938745,11935.0
1698745600.5142848,11935.0
1698745600.5346956,11938.0
1698745600.555106,11943.0
1698745600.5755167,11942.0
1698745600.5959272,11945.0
1698745600.6163378,11949.0
1698745600.6367483,11950.0
1698745600.657159,11960.0
1698745600.6775696,11956.0
1698745600.6979802,11957.0
1698745600.718391,11964.0
1698745600.7388015,11965.0
1698745600.7592123,11977.0
1698745600.7796228,11961.0
1698745600.8000333,11960.0
1698745600.8204439,11954.0
1698745600.8408544,11946.0
1698745600.8612652,11930.0
1698745600.8816757,11928.0
1698745600.9020865,11920.0
1698745600.922497,11928.0
1698745600.9429078,11922.0
1698745600.963318,11918.0
1698745600.9837286,11926.0
1698745601.0041394,11926.0
1698745601.02455,11935.0
1698745601.0449607,11947.0
1698745601.065371,11944.0
1698745601.0857816,11946.0
1698745601.1061924,11946.0
1698745601.1266031,11953.0
1698745601.1470137,11952.0
1698745601.1674242,11951.0
1698745601.187835,11951.0
1698745601.2082453,11954.0
1698745601.228656,11957.0
1698745601.2490668,11974.0
1698745601.2694774,11973.0
1698745601.289888,11968.0
1698745601.3102987,11980.0
1698745601.330709,11980.0
1698745601.3511195,11976.0
1698745601.3715305,11983.0
1698745601.3919408,11987.0
1698745601.4123516,11987.0
1698745601.4327621,11994.0
1698745601.4531727,11993.0
1698745601.4735832,11988.0
1698745601.493994,11988.0
1698745601.5144043,11988.0
1698745601.534815,11983.0
1698745601.5552258,11970.0
1698745601.5756364,11965.0
1698745601.596047,11961.0
1698745601.6164575,11959.0
1698745601.6368682,11958.0
1698745601.6572788,11960.0
1698745601.6776898,11959.0
1698745601.6981,11963.0
1698745601.7185104,11970.0
1698745601.7389212,11979.0
1698745601.7593317,11989.0
1698745601.7797425,11994.0
1698745601.800153,11994.0
1698745601.8205638,11989.0
1698745601.840974,11992.0
1698745601.8613849,11988.0
1698745601.8817954,11993.0
1698745601.902206,11987.0
1698745601.9226167,11983.0
1698745601.943027,11981.0
1698745601.963438,11983.0
1698745601.9838483,11982.0
1698745602.004259,11983.0
1698745602.0246696,11975.0
1698745602.0450804,11990.0
1698745602.065491,11980.0
1698745602.0859015,11981.0
1698745602.106312,11987.0
1698745602.1267228,11983.0
1698745602.1471334,11988.0
1698745602.167544,11985.0
1698745602.1879547,11980.0
1698745602.2083652,11984.0
1698745602.228776,11984.0
1698745602.2491863,12004.0
1698745602.2695968,11997.0
1698745602.2900076,12014.0
1698745602.3104181,12012.0
1698745602.330829,12014.0
1698745602.3512394,12013.0
1698745602.37165,12026.0
1698745602.3920603,12010.0
1698745602.4124713,12009.0
1698745602.4328818,12009.0
1698745602.4532924,12006.0
1698745602.4737031,11999.0
1698745602.4941134,11986.0
1698745602.5145242,11986.0
1698745602.5349348,11982.0
1698745602.5553458,11975.0
1698745602.575756,11984.0
1698745602.5961668,11968.0
1698745602.6165774,11954.0
1698745602.6369877,11960.0
1698745602.6573985,11954.0
1698745602.677809,11961.0
1698745602.6982195,11957.0
1698745602.7186303,11957.0
1698745602.739041,11953.0
1698745602.7594514,11948.0
1698745602.7798622,11948.0
1698745602.8002727,11945.0
1698745602.820683,11945.0
1698745602.841094,11942.0
1698745602.8615046,11944.0
1698745602.881915,11941.0
1698745602.9023256,11950.0
1698745602.9227364,11949.0
1698745602.943147,11952.0
1698745602.9635577,11949.0
1698745602.9839685,11957.0
1698745603.0043788,11950.0
1698745603.0247893,11945.0
1698745603.0451999,11949.0
1698745603.0656106,11949.0
1698745603.0860212,11945.0
1698745603.106432,11945.0
1698745603.1268423,11952.0
1698745603.147253,11953.0
1698745603.1676636,11958.0
1698745603.188074,11965.0
1698745603.208485,11956.0
1698745603.2288954,11952.0
1698745603.2493062,11950.0
1698745603.2697165,11941.0
1698745603.2901273,11930.0
1698745603.3105378,11928.0
1698745603.3309486,11923.0
1698745603.3513591,11914.0
1698745603.3717697,11905.0
1698745603.3921804,11899.0
1698745603.4125907,11897.0
1698745603.4330018,11885.0
1698745603.453412,11881.0
1698745603.4738228,11876.0
1698745603.4942334,11867.0
1698745603.5146441,11868.0
1698745603.5350544,11860.0
1698745603.555465,11853.0
1698745603.5758755,11854.0
1698745603.5962863,11845.0
1698745603.616697,11843.0
1698745603.6371076,11841.0
1698745603.6575181,11840.0
1698745603.6779287,11836.0
1698745603.6983395,11833.0
1698745603.71875,11834.0
1698745603.7391605,11837.0
1698745603.7595713,11833.0
1698745603.7799819,11844.0
1698745603.8003924,11839.0
1698745603.820803,11851.0
1698745603.8412137,11854.0
1698745603.8616245,11849.0
1698745603.882035,11856.0
1698745603.9024456,11852.0
1698745603.9228559,11855.0
1698745603.9432666,11844.0
1698745603.9636772,11845.0
1698745603.984088,11846.0
1698745604.0044982,11839.0
1698745604.0249093,11844.0
1698745604.0453196,11832.0
1698745604.0657303,11837.0
1698745604.0861409,11840.0
1698745604.1065514,11838.0
1698745604.1269622,11841.0
1698745604.1473727,11841.0
1698745604.1677835,11839.0
1698745604.1881938,11839.0
1698745604.2086046,11835.0
1698745604.229015,11839.0
1698745604.249426,11839.0
1698745604.2698364,11837.0
1698745604.290247,11831.0
1698745604.3106577,11835.0
1698745604.331068,11846.0
1698745604.3514788,11876.0
1698745604.3718894,11902.0
1698745604.3923001,11911.0
1698745604.4127107,11927.0
1698745604.4331212,11927.0
1698745604.4535315,11923.0
1698745604.4739423,11924.0
1698745604.494353,11916.0
1698745604.5147636,11917.0
1698745604.5351744,11922.0
1698745604.555585,11925.0
1698745604.5759954,11920.0
1698745604.596406,11920.0
1698745604.616817,11917.0
1698745604.6372273,11919.0
1698745604.6576378,11923.0
1698745604.6780486,11922.0
1698745604.698459,11918.0
1698745604.7188697,11914.0
1698745604.7392805,11908.0
1698745604.759691,11904.0
1698745604.7801015,11906.0
1698745604.8005123,11900.0
1698745604.8209226,11908.0
1698745604.8413332,11911.0
1698745604.861744,11924.0
1698745604.8821542,11937.0
1698745604.9025652,11947.0
1698745604.9229758,11949.0
1698745604.9433866,11955.0
1698745604.9637969,11964.0
1698745604.9842076,11964.0
1698745605.0046182,11967.0
1698745605.0250287,11966.0
1698745605.0454397,11966.0
1698745605.06585,11966.0
1698745605.0862606,11959.0
1698745605.106671,11962.0
1698745605.1270819,11966.0
1698745605.1474924,11972.0
1698745605.1679032,11972.0
1698745605.1883137,11971.0
1698745605.208724,11984.0
1698745605.2291348,11988.0
1698745605.2495453,11989.0
1698745605.269956,11990.0
1698745605.2903666,11992.0
1698745605.3107772,11988.0
1698745605.331188,11998.0
1698745605.3515985,12010.0
1698745605.372009,12024.0
1698745605.3924196,12035.0
1698745605.4128304,12041.0
1698745605.433241,12051.0
1698745605.4536517,12064.0
1698745605.474062,12072.0
1698745605.494473,12080.0
1698745605.5148833,12100.0
1698745605.535294,12105.0
1698745605.5557046,12115.0
1698745605.5761151,12118.0
1698745605.596526,12131.0
1698745605.6169362,12130.0
1698745605.637347,12131.0
1698745605.6577575,12142.0
1698745605.6781683,12144.0
1698745605.6985788,12154.0
1698745605.7189896,12158.0
1698745605.7394,12156.0
1698745605.7598102,12160.0
1698745605.7802212,12162.0
1698745605.8006318,12156.0
1698745605.8210425,12163.0
1698745605.841453,12182.0
1698745605.8618636,12199.0
1698745605.8822742,12209.0
1698745605.902685,12209.0
1698745605.9230957,12199.0
1698745605.943506,12190.0
1698745605.9639168,12181.0
1698745605.9843273,12175.0
1698745606.0047379,12163.0
1698745606.0251484,12160.0
1698745606.0455592,12154.0
1698745606.0659695,12147.0
1698745606.0863805,12133.0
1698745606.106791,12129.0
1698745606.1272013,12122.0
1698745606.147612,12128.0
1698745606.1680226,12123.0
1698745606.1884332,12124.0
1698745606.208844,12122.0
1698745606.2292547,12121.0
1698745606.249665,12122.0
1698745606.2700758,12126.0
1698745606.2904863,12129.0
1698745606.3108969,12128.0
1698745606.3313076,12121.0
1698745606.3517184,12125.0
1698745606.372129,12136.0
1698745606.3925393,12152.0
1698745606.41295,12148.0
1698745606.4333606,12158.0
1698745606.4537714,12162.0
1698745606.474182,12166.0
1698745606.4945922,12170.0
1698745606.515003,12183.0
1698745606.5354135,12176.0
1698745606.5558243,12172.0
1698745606.5762348,12170.0
1698745606.5966456,12168.0
1698745606.6170561,12163.0
1698745606.6374667,12166.0
1698745606.6578772,12167.0
1698745606.6782877,12177.0
1698745606.6986985,12174.0
1698745606.719109,12180.0
1698745606.7395198,12181.0
1698745606.7599304,12182.0
1698745606.780341,12179.0
1698745606.8007517,12177.0
1698745606.8211622,12178.0
1698745606.8415728,12165.0
1698745606.8619833,12168.0
1698745606.882394,12162.0
1698745606.9028044,12166.0
1698745606.9232152,12170.0
1698745606.9436255,12171.0
1698745606.9640365,12177.0
1698745606.984447,12173.0
1698745607.0048578,12173.0
1698745607.025268,12178.0
1698745607.0456786,12176.0
1698745607.0660894,12171.0
1698745607.0865,12173.0
1698745607.1069107,12161.0
1698745607.1273212,12153.0
1698745607.147732,12145.0
1698745607.1681423,12142.0
1698745607.188553,12137.0
1698745607.2089636,12138.0
1698745607.2293744,12136.0
1698745607.249785,12131.0
1698745607.2701955,12134.0
1698745607.290606,12125.0
1698745607.3110166,12129.0
1698745607.3314273,12135.0
1698745607.3518379,12137.0
1698745607.3722482,12135.0
1698745607.3926592,12136.0
1698745607.4130695,12133.0
1698745607.4334803,12135.0
1698745607.4538908,12136.0
1698745607.4743016,12146.0
1698745607.494712,12146.0
1698745607.515123,12149.0
1698745607.5355334,12156.0
1698745607.555944,12159.0
1698745607.5763545,12157.0
1698745607.596765,12168.0
1698745607.6171758,12179.0
1698745607.6375864,12182.0
1698745607.6579971,12180.0
1698745607.6784077,12186.0
1698745607.6988182,12179.0
1698745607.7192287,12191.0
1698745607.7396395,12184.0
1698745607.76005,12188.0
1698745607.7804606,12184.0
1698745607.8008711,12178.0
1698745607.8212814,12178.0
1698745607.8416924,12174.0
1698745607.862103,12170.0
1698745607.8825138,12166.0
1698745607.9029243,12170.0
1698745607.923335,12167.0
1698745607.9437454,12166.0
1698745607.964156,12173.0
1698745607.984567,12194.0
1698745608.0049772,12210.0
1698745608.025388,12209.0
1698745608.0457985,12196.0
1698745608.066209,12197.0
1698745608.0866196,12200.0
1698745608.1070306,12193.0
1698745608.127441,12194.0
1698745608.1478515,12181.0
1698745608.1682622,12183.0
1698745608.1886725,12178.0
1698745608.2090833,12169.0
1698745608.2294939,12169.0
1698745608.2499044,12174.0
1698745608.2703152,12174.0
1698745608.290726,12174.0
1698745608.3111365,12170.0
1698745608.3315468,12173.0
1698745608.3519576,12167.0
1698745608.372368,12165.0
1698745608.3927789,12162.0
1698745608.4131896,12150.0
1698745608.4336002,12151.0
1698745608.4540105,12157.0
1698745608.474421,12164.0
1698745608.4948318,12175.0
1698745608.5152423,12188.0
1698745608.535653,12191.0
1698745608.5560637,12194.0
1698745608.5764742,12200.0
1698745608.5968847,12194.0
1698745608.6172955,12197.0
1698745608.637706,12193.0
1698745608.6581168,12202.0
1698745608.678527,12198.0
1698745608.698938,12212.0
1698745608.7193484,12226.0
1698745608.739759,12230.0
1698745608.7601697,12235.0
1698745608.7805803,12245.0
1698745608.800991,12244.0
1698745608.8214016,12246.0
1698745608.841812,12253.0
1698745608.862223,12248.0
1698745608.8826332,12249.0
1698745608.903044,12240.0
1698745608.9234545,12242.0
1698745608.9438653,12247.0
1698745608.9642758,12253.0
1698745608.9846864,12263.0
1698745609.005097,12273.0
1698745609.0255075,12271.0
1698745609.0459182,12275.0
1698745609.0663288,12254.0
1698745609.0867395,12249.0
1698745609.1071498,12238.0
1698745609.1275604,12233.0
1698745609.1479712,12229.0
1698745609.168382,12227.0
1698745609.1887925,12225.0
1698745609.2092032,12223.0
1698745609.2296135,12213.0
1698745609.250024,12210.0
1698745609.2704349,12200.0
1698745609.2908456,12193.0
1698745609.3112562,12191.0
1698745609.3316667,12194.0
1698745609.3520775,12209.0
1698745609.3724878,12193.0
1698745609.3928983,12200.0
1698745609.413309,12199.0
1698745609.4337194,12198.0
1698745609.4541304,12203.0
1698745609.474541,12200.0
1698745609.4949515,12197.0
1698745609.515362,12192.0
1698745609.5357728,12194.0
1698745609.556183,12199.0
1698745609.5765939,12185.0
1698745609.5970047,12188.0
1698745609.617415,12182.0
1698745609.6378257,12189.0
1698745609.6582363,12180.0
1698745609.678647,12183.0
1698745609.6990576,12184.0
1698745609.7194686,12179.0
1698745609.739879,12186.0
1698745609.7602892,12186.0
1698745609.7807,12189.0
1698745609.8011105,12189.0
1698745609.8215213,12192.0
1698745609.8419318,12193.0
1698745609.8623424,12190.0
1698745609.882753,12193.0
1698745609.9031637,12186.0
1698745609.9235742,12176.0
1698745609.9439847,12177.0
1698745609.9643955,12177.0
1698745609.984806,12168.0
1698745610.0052166,12171.0
1698745610.0256271,12163.0
1698745610.046038,12165.0
1698745610.0664485,12170.0
1698745610.0868592,12174.0
1698745610.1072698,12183.0
1698745610.1276803,12175.0
1698745610.1480908,12175.0
1698745610.1685016,12178.0
1698745610.1889122,12167.0
1698745610.2093227,12159.0
1698745610.2297335,12158.0
1698745610.250144,12138.0
1698745610.2705545,12159.0
1698745610.290965,12152.0
1698745610.3113754,12140.0
1698745610.3317864,12138.0
1698745610.352197,12133.0
1698745610.3726077,12126.0
1698745610.393018,12134.0
1698745610.4134288,12125.0
1698745610.4338393,12130.0
1698745610.45425,12136.0
1698745610.4746606,12133.0
1698745610.4950712,12131.0
1698745610.515482,12128.0
1698745610.5358922,12128.0
1698745610.556303,12117.0
1698745610.5767136,12120.0
1698745610.5971246,12117.0
1698745610.6175349,12114.0
1698745610.6379457,12114.0
1698745610.658356,12115.0
1698745610.6787665,12119.0
1698745610.6991773,12122.0
1698745610.7195878,12118.0
1698745610.7399983,12123.0
1698745610.760409,12125.0
1698745610.7808197,12128.0
1698745610.8012302,12128.0
1698745610.821641,12124.0
1698745610.8420515,12124.0
1698745610.862462,12123.0
1698745610.8828728,12121.0
1698745610.9032834,12120.0
1698745610.923694,12117.0
1698745610.9441044,12109.0
1698745610.9645152,12109.0
1698745610.9849257,12103.0
1698745611.0053365,12097.0
1698745611.025747,12089.0
1698745611.0461576,12096.0
1698745611.0665681,12097.0
1698745611.0869787,12090.0
1698745611.1073895,12088.0
1698745611.1278,12086.0
1698745611.1482108,12093.0
1698745611.168621,12100.0
1698745611.1890316,12102.0
1698745611.2094424,12105.0
1698745611.229853,12108.0
1698745611.2502637,12107.0
1698745611.2706742,12122.0
1698745611.291085,12114.0
1698745611.3114953,12101.0
1698745611.331906,12091.0
1698745611.3523169,12072.0
1698745611.3727274,12070.0
1698745611.393138,12072.0
1698745611.4135485,12068.0
1698745611.433959,12076.0
1698745611.4543695,12073.0
1698745611.4747806,12057.0
1698745611.4951909,12053.0
1698745611.5156016,12038.0
1698745611.5360122,12030.0
1698745611.5564227,12019.0
1698745611.5768332,12005.0
1698745611.5972438,11998.0
1698745611.6176543,11995.0
1698745611.638065,11985.0
1698745611.6584759,11984.0
1698745611.6788864,11982.0
1698745611.699297,11987.0
1698745611.7197075,11982.0
1698745611.7401183,11990.0
1698745611.7605288,12005.0
1698745611.7809396,12010.0
1698745611.80135,12024.0
1698745611.8217604,12021.0
1698745611.8421712,12036.0
1698745611.8625817,12038.0
1698745611.8829925,12041.0
1698745611.903403,12048.0
1698745611.9238138,12056.0
1698745611.944224,12055.0
1698745611.9646347,12055.0
1698745611.9850454,12059.0
1698745612.005456,12059.0
1698745612.0258667,12065.0
1698745612.046277,12066.0
1698745612.066688,12067.0
1698745612.0870984,12068.0
1698745612.1075091,12073.0
1698745612.1279197,12061.0
1698745612.1483302,12066.0
1698745612.168741,12066.0
1698745612.1891515,12068.0
1698745612.209562,12065.0
1698745612.2299728,12063.0
1698745612.2503834,12061.0
1698745612.270794,12060.0
1698745612.2912047,12070.0
1698745612.3116152,12066.0
1698745612.3320258,12067.0
1698745612.3524363,12066.0
1698745612.3728468,12070.0
1698745612.3932576,12071.0
1698745612.4136682,12072.0
1698745612.434079,12067.0
1698745612.4544895,12075.0
1698745612.4749,12079.0
1698745612.4953103,12079.0
1698745612.515721,12073.0
1698745612.5361319,12075.0
1698745612.5565424,12072.0
1698745612.5769532,12069.0
1698745612.5973635,12074.0
1698745612.6177742,12077.0
1698745612.6381848,12078.0
1698745612.6585958,12079.0
1698745612.679006,12071.0
1698745612.6994166,12076.0
1698745612.7198274,12078.0
1698745612.7402377,12068.0
1698745612.7606485,12066.0
1698745612.781059,12062.0
1698745612.8014696,12064.0
1698745612.8218803,12049.0
1698745612.842291,12060.0
1698745612.8627014,12055.0
1698745612.883112,12051.0
1698745612.9035227,12057.0
1698745612.923933,12054.0
1698745612.944344,12051.0
1698745612.9647546,12049.0
1698745612.985165,12055.0
1698745613.0055757,12052.0
1698745613.0259864,12050.0
1698745613.046397,12052.0
1698745613.0668075,12061.0
1698745613.0872185,12059.0
1698745613.1076288,12056.0
1698745613.1280394,12060.0
1698745613.14845,12052.0
1698745613.1688607,12059.0
1698745613.1892712,12059.0
1698745613.209682,12061.0
1698745613.2300923,12060.0
1698745613.2505028,12061.0
1698745613.2709136,12064.0
1698745613.2913241,12066.0
1698745613.311735,12065.0
1698745613.3321455,12068.0
1698745613.3525562,12067.0
1698745613.3729665,12064.0
1698745613.3933773,12061.0
1698745613.4137878,12060.0
1698745613.4341984,12058.0
1698745613.4546092,12047.0
1698745613.4750197,12047.0
1698745613.4954305,12043.0
1698745613.5158408,12046.0
1698745613.5362518,12039.0
1698745613.556662,12040.0
1698745613.5770729,12048.0
1698745613.5974834,12041.0
1698745613.617894,12027.0
1698745613.6383045,12029.0
1698745613.658715,12033.0
1698745613.6791255,12030.0
1698745613.6995363,12034.0
1698745613.719947,12015.0
1698745613.7403576,12034.0
1698745613.7607682,12033.0
1698745613.7811787,12029.0
1698745613.8015893,12030.0
1698745613.8424106,12032.0
1698745613.8628213,12037.0
1698745613.8832319,12043.0
1698745613.9036424,12045.0
1698745613.924053,12052.0
1698745613.9444637,12055.0
1698745613.9648745,12062.0
1698745613.9852848,12057.0
1698745614.0056956,12054.0
1698745614.0261059,12056.0
1698745614.0465167,12070.0
1698745614.0669272,12055.0
1698745614.087338,12055.0
1698745614.1077483,12051.0
1698745614.1281593,12050.0
1698745614.1485696,12052.0
1698745614.1689801,12048.0
1698745614.189391,12039.0
1698745614.2098014,12040.0
1698745614.2302122,12043.0
1698745614.2506227,12045.0
1698745614.2710335,12048.0
1698745614.2914438,12049.0
1698745614.3118546,12052.0
1698745614.3322651,12050.0
1698745614.3526757,12053.0
1698745614.3730865,12054.0
1698745614.393497,12053.0
1698745614.4139078,12063.0
1698745614.434318,12060.0
1698745614.4547288,12058.0
1698745614.4751394,12062.0
1698745614.4955502,12072.0
1698745614.5159607,12073.0
1698745614.536371,12074.0
1698745614.5567815,12076.0
1698745614.5771923,12085.0
1698745614.597603,12091.0
1698745614.6180136,12090.0
1698745614.6384244,12085.0
1698745614.658835,12089.0
1698745614.6792455,12085.0
1698745614.699656,12082.0
1698745614.7200668,12082.0
1698745614.7404773,12083.0
1698745614.7608879,12068.0
1698745614.7812986,12071.0
1698745614.801709,12068.0
1698745614.8221197,12067.0
1698745614.8425305,12064.0
1698745614.862941,12063.0
1698745614.8833516,12070.0
1698745614.903762,12064.0
1698745614.9241726,12061.0
1698745614.9445832,12065.0
1698745614.964994,12061.0
1698745614.9854043,12068.0
1698745615.0058153,12069.0
1698745615.0262258,12062.0
1698745615.0466366,12067.0
1698745615.0670469,12063.0
1698745615.0874574,12066.0
1698745615.1078682,12071.0
1698745615.1282787,12076.0
1698745615.1486897,12068.0
1698745615.1691,12076.0
1698745615.1895106,12082.0
1698745615.2099211,12089.0
1698745615.230332,12099.0
1698745615.2507424,12098.0
1698745615.271153,12099.0
1698745615.2915637,12098.0
1698745615.311974,12101.0
1698745615.3323848,12097.0
1698745615.3527954,12101.0
1698745615.3732061,12097.0
1698745615.3936167,12097.0
1698745615.4140272,12095.0
1698745615.434438,12097.0
1698745615.4548483,12101.0
1698745615.475259,12096.0
1698745615.4956696,12104.0
1698745615.5160804,12107.0
1698745615.536491,12107.0
1698745615.5569017,12112.0
1698745615.577312,12108.0
1698745615.597723,12123.0
1698745615.6181333,12116.0
1698745615.6385438,12116.0
1698745615.6589546,12114.0
1698745615.6793652,12113.0
1698745615.699776,12121.0
1698745615.7201862,12122.0
1698745615.740597,12119.0
1698745615.7610075,12115.0
1698745615.7814183,12116.0
1698745615.8018289,12125.0
1698745615.8222394,12122.0
1698745615.84265,12115.0
1698745615.8630602,12120.0
1698745615.8834713,12125.0
1698745615.9038818,12123.0
1698745615.9242926,12126.0
1698745615.944703,12124.0
1698745615.9651136,12122.0
1698745615.9855242,12120.0
1698745616.0059347,12114.0
1698745616.0263457,12114.0
1698745616.046756,12116.0
1698745616.0671668,12110.0
1698745616.0875773,12107.0
1698745616.1079879,12103.0
1698745616.1283984,12102.0
1698745616.1488092,12100.0
1698745616.1692195,12108.0
1698745616.1896303,12119.0
1698745616.210041,12113.0
1698745616.2304513,12108.0
1698745616.2508621,12109.0
1698745616.2712727,12109.0
1698745616.2916832,12114.0
1698745616.312094,12117.0
1698745616.3325047,12117.0
1698745616.352915,12109.0
1698745616.3733256,12114.0
1698745616.3937364,12113.0
1698745616.414147,12118.0
1698745616.4345577,12115.0
1698745616.4549685,12112.0
1698745616.475379,12121.0
1698745616.4957893,12119.0
1698745616.5162,12124.0
1698745616.5366106,12128.0
1698745616.5570211,12119.0
1698745616.577432,12121.0
1698745616.5978422,12118.0
1698745616.618253,12114.0
1698745616.6386635,12119.0
1698745616.6590743,12112.0
1698745616.6794848,12104.0
1698745616.6998956,12098.0
1698745616.7203062,12101.0
1698745616.7407165,12105.0
1698745616.7611272,12097.0
1698745616.7815378,12100.0
1698745616.8019485,12102.0
1698745616.822359,12099.0
1698745616.8427699,12098.0
1698745616.8631804,12099.0
1698745616.883591,12093.0
1698745616.9040017,12096.0
1698745616.924412,12097.0
1698745616.9448228,12095.0
1698745616.9652333,12092.0
1698745616.985644,12093.0
