timestamp,ppg
1698674961.0132637,14480.0
1698674961.0338602,14478.0
1698674961.0544562,14474.0
1698674961.0750527,14471.0
1698674961.0956492,14469.0
1698674961.1162455,14468.0
1698674961.136842,14462.0
1698674961.1574385,14465.0
1698674961.178035,14460.0
1698674961.198631,14458.0
1698674961.2192276,14454.0
1698674961.239824,14452.0
1698674961.2604203,14452.0
1698674961.2810168,14444.0
1698674961.3016133,14437.0
1698674961.3222098,14431.0
1698674961.342806,14427.0
1698674961.3634024,14423.0
1698674961.3839989,14414.0
1698674961.4045951,14410.0
1698674961.4251916,14406.0
1698674961.4457881,14404.0
1698674961.4663844,14394.0
1698674961.486981,14389.0
1698674961.5075774,14386.0
1698674961.5281737,14386.0
1698674961.54877,14378.0
1698674961.5693665,14378.0
1698674961.589963,14371.0
1698674961.610559,14365.0
1698674961.6311557,14364.0
1698674961.6517522,14361.0
1698674961.6723485,14353.0
1698674961.6929448,14336.0
1698674961.7135413,14352.0
1698674961.7341378,14346.0
1698674961.7547338,14343.0
1698674961.7753305,14341.0
1698674961.795927,14340.0
1698674961.816523,14337.0
1698674961.8371196,14334.0
1698674961.857716,14330.0
1698674961.8783126,14328.0
1698674961.8989089,14324.0
1698674961.9195054,14325.0
1698674961.9401019,14321.0
1698674961.960698,14318.0
1698674961.9812944,14321.0
1698674962.001891,14311.0
1698674962.0224874,14312.0
1698674962.0430834,14310.0
1698674962.0636802,14303.0
1698674962.0842767,14300.0
1698674962.1048727,14299.0
1698674962.1254692,14290.0
1698674962.1460657,14286.0
1698674962.1666622,14262.0
1698674962.1872582,14273.0
1698674962.207855,14266.0
1698674962.2284515,14257.0
1698674962.2490475,14256.0
1698674962.269644,14249.0
1698674962.2902405,14245.0
1698674962.310837,14242.0
1698674962.331433,14233.0
1698674962.3520298,14233.0
1698674962.3726263,14207.0
1698674962.3932228,14225.0
1698674962.4138188,14219.0
1698674962.4344153,14216.0
1698674962.4550116,14215.0
1698674962.475608,14209.0
1698674962.4962046,14210.0
1698674962.516801,14202.0
1698674962.5373976,14198.0
1698674962.5579937,14198.0
1698674962.5785902,14195.0
1698674962.5991862,14187.0
1698674962.619783,14188.0
1698674962.6403794,14182.0
1698674962.660976,14187.0
1698674962.6815724,14180.0
1698674962.7021685,14178.0
1698674962.722765,14173.0
1698674962.743361,14175.0
1698674962.7639577,14171.0
1698674962.7845542,14170.0
1698674962.8051507,14168.0
1698674962.825747,14163.0
1698674962.8463433,14166.0
1698674962.8669398,14159.0
1698674962.8875358,14159.0
1698674962.9081326,14155.0
1698674962.928729,14152.0
1698674962.9493253,14149.0
1698674962.969922,14144.0
1698674962.990518,14136.0
1698674963.0111146,14132.0
1698674963.0317109,14131.0
1698674963.0523074,14123.0
1698674963.0729039,14121.0
1698674963.0935001,14115.0
1698674963.1140966,14107.0
1698674963.134693,14103.0
1698674963.1552894,14100.0
1698674963.1758854,14094.0
1698674963.1964822,14094.0
1698674963.2170787,14091.0
1698674963.237675,14089.0
1698674963.2582715,14079.0
1698674963.278868,14061.0
1698674963.2994642,14077.0
1698674963.3200603,14075.0
1698674963.340657,14070.0
1698674963.3612535,14071.0
1698674963.38185,14070.0
1698674963.4024463,14067.0
1698674963.4230428,14060.0
1698674963.4436388,14058.0
1698674963.4642353,14056.0
1698674963.4848318,14055.0
1698674963.5054283,14054.0
1698674963.5260248,14052.0
1698674963.546621,14046.0
1698674963.5672176,14049.0
1698674963.5878136,14047.0
1698674963.6084101,14041.0
1698674963.6290066,14044.0
1698674963.6496031,14038.0
1698674963.6701996,14038.0
1698674963.690796,14042.0
1698674963.7113924,14035.0
1698674963.7319882,14041.0
1698674963.752585,14037.0
1698674963.7731814,14032.0
1698674963.793778,14032.0
1698674963.8143744,14031.0
1698674963.8349707,14028.0
1698674963.8555672,14028.0
1698674963.876163,14018.0
1698674963.8967597,14017.0
1698674963.9173563,14010.0
1698674963.9379525,14004.0
1698674963.958549,14004.0
1698674963.9791455,14000.0
1698674963.999742,13993.0
1698674964.0203383,13991.0
1698674964.0409346,13986.0
1698674964.061531,13985.0
1698674964.0821273,13982.0
1698674964.102724,13977.0
1698674964.1233203,13975.0
1698674964.1439168,13970.0
1698674964.164513,13973.0
1698674964.1851094,13964.0
1698674964.205706,13964.0
1698674964.2263021,13962.0
1698674964.2468987,13960.0
1698674964.2674952,13956.0
1698674964.2880917,13958.0
1698674964.308688,13952.0
1698674964.3292842,13952.0
1698674964.3498807,13953.0
1698674964.370477,13952.0
1698674964.3910735,13951.0
1698674964.41167,13950.0
1698674964.4322665,13947.0
1698674964.4528627,13949.0
1698674964.473459,13947.0
1698674964.4940555,13945.0
1698674964.514652,13952.0
1698674964.5352483,13952.0
1698674964.5558448,13948.0
1698674964.576441,13951.0
1698674964.5970376,13949.0
1698674964.6176338,13953.0
1698674964.6382303,13953.0
1698674964.6588268,13965.0
1698674964.679423,13966.0
1698674964.7000196,13969.0
1698674964.7206159,13976.0
1698674964.7412124,13983.0
1698674964.7618086,13990.0
1698674964.7824051,14006.0
1698674964.8030016,14024.0
1698674964.823598,14043.0
1698674964.8441944,14068.0
1698674964.8647907,14109.0
1698674964.8853872,14141.0
1698674964.9059837,14175.0
1698674964.92658,14218.0
1698674964.9471765,14260.0
1698674964.9677727,14303.0
1698674964.9883692,14351.0
1698674965.0089655,14392.0
1698674965.029562,14438.0
1698674965.0501585,14479.0
1698674965.0707545,14518.0
1698674965.091351,14559.0
1698674965.1119475,14590.0
1698674965.132544,14623.0
1698674965.1531403,14660.0
1698674965.1737368,14687.0
1698674965.1943333,14715.0
1698674965.2149293,14741.0
1698674965.2355258,14768.0
1698674965.2561224,14790.0
1698674965.2767189,14813.0
1698674965.2973151,14830.0
1698674965.3179116,14849.0
1698674965.3385081,14864.0
1698674965.3591042,14883.0
1698674965.3797007,14897.0
1698674965.4002972,14912.0
1698674965.4208937,14927.0
1698674965.44149,14940.0
1698674965.4620864,14953.0
1698674965.482683,14958.0
1698674965.503279,14964.0
1698674965.5238755,14977.0
1698674965.544472,14982.0
1698674965.5650682,14988.0
1698674965.5856647,14991.0
1698674965.6062613,15000.0
1698674965.6268578,15003.0
1698674965.647454,15010.0
1698674965.6680503,15019.0
1698674965.6886468,15030.0
1698674965.709243,15033.0
1698674965.7298396,15036.0
1698674965.750436,15037.0
1698674965.7710326,15047.0
1698674965.7916288,15050.0
1698674965.812225,15057.0
1698674965.8328216,15069.0
1698674965.8534179,15069.0
1698674965.8740144,15076.0
1698674965.894611,15080.0
1698674965.9152074,15085.0
1698674965.9358037,15090.0
1698674965.9564,15094.0
1698674965.9769964,15095.0
1698674965.9975927,15104.0
1698674966.0181892,15114.0
1698674966.0387857,15126.0
1698674966.059382,15132.0
1698674966.0799785,15144.0
1698674966.1005747,15157.0
1698674966.1211712,15172.0
1698674966.1417675,15180.0
1698674966.162364,15186.0
1698674966.1829605,15193.0
1698674966.2035568,15196.0
1698674966.2241533,15206.0
1698674966.2447495,15207.0
1698674966.265346,15212.0
1698674966.2859423,15213.0
1698674966.3065388,15213.0
1698674966.3271353,15207.0
1698674966.3477316,15207.0
1698674966.3683279,15195.0
1698674966.3889244,15187.0
1698674966.4095209,15175.0
1698674966.4301171,15167.0
1698674966.4507136,15148.0
1698674966.4713101,15136.0
1698674966.4919064,15116.0
1698674966.512503,15087.0
1698674966.5330992,15076.0
1698674966.5536954,15064.0
1698674966.574292,15060.0
1698674966.5948884,15056.0
1698674966.615485,15051.0
1698674966.6360812,15042.0
1698674966.6566775,15036.0
1698674966.6772742,15034.0
1698674966.6978703,15026.0
1698674966.7184668,15011.0
1698674966.7390633,14997.0
1698674966.7596598,14987.0
1698674966.780256,14971.0
1698674966.8008523,14957.0
1698674966.821449,14948.0
1698674966.842045,14943.0
1698674966.8626416,14935.0
1698674966.883238,14936.0
1698674966.9038346,14939.0
1698674966.9244308,14941.0
1698674966.945027,14940.0
1698674966.9656239,14939.0
1698674966.98622,14939.0
1698674967.0068164,14930.0
1698674967.027413,14923.0
1698674967.0480094,14914.0
1698674967.0686057,14905.0
1698674967.089202,14897.0
1698674967.1097987,14890.0
1698674967.1303947,14877.0
1698674967.1509912,14865.0
1698674967.1715877,14854.0
1698674967.192184,14839.0
1698674967.2127805,14828.0
1698674967.233377,14818.0
1698674967.2539735,14812.0
1698674967.2745695,14800.0
1698674967.295166,14793.0
1698674967.3157625,14789.0
1698674967.3363588,14776.0
1698674967.356955,14768.0
1698674967.3775518,14761.0
1698674967.3981483,14751.0
1698674967.4187446,14751.0
1698674967.4393408,14743.0
1698674967.4599373,14738.0
1698674967.4805336,14726.0
1698674967.5011299,14713.0
1698674967.5217266,14707.0
1698674967.542323,14698.0
1698674967.5629194,14683.0
1698674967.5835156,14668.0
1698674967.6041121,14648.0
1698674967.6247084,14631.0
1698674967.645305,14621.0
1698674967.6659014,14615.0
1698674967.6864977,14610.0
1698674967.7070942,14602.0
1698674967.7276905,14590.0
1698674967.748287,14580.0
1698674967.7688832,14572.0
1698674967.7894795,14564.0
1698674967.8100762,14569.0
1698674967.8306725,14573.0
1698674967.851269,14576.0
1698674967.8718653,14577.0
1698674967.8924618,14582.0
1698674967.913058,14581.0
1698674967.9336543,14576.0
1698674967.954251,14574.0
1698674967.9748473,14577.0
1698674967.9954438,14568.0
1698674968.01604,14547.0
1698674968.0366366,14557.0
1698674968.0572329,14553.0
1698674968.0778291,14547.0
1698674968.0984259,14538.0
1698674968.1190221,14532.0
1698674968.1396189,14529.0
1698674968.160215,14523.0
1698674968.1808112,14511.0
1698674968.2014077,14499.0
1698674968.2220042,14488.0
1698674968.2426007,14477.0
1698674968.263197,14464.0
1698674968.2837937,14453.0
1698674968.30439,14444.0
1698674968.324986,14444.0
1698674968.3455825,14440.0
1698674968.366179,14436.0
1698674968.3867755,14429.0
1698674968.4073718,14429.0
1698674968.4279685,14419.0
1698674968.4485648,14418.0
1698674968.4691608,14412.0
1698674968.489757,14412.0
1698674968.5103538,14409.0
1698674968.5309503,14387.0
1698674968.5515466,14366.0
1698674968.572143,14350.0
1698674968.5927396,14338.0
1698674968.6133356,14321.0
1698674968.6339319,14313.0
1698674968.6545286,14311.0
1698674968.675125,14304.0
1698674968.6957214,14286.0
1698674968.7163181,14273.0
1698674968.7369144,14255.0
1698674968.7575104,14246.0
1698674968.778107,14237.0
1698674968.7987034,14230.0
1698674968.8192997,14234.0
1698674968.8398962,14246.0
1698674968.860493,14249.0
1698674968.8810892,14256.0
1698674968.9016852,14255.0
1698674968.9222815,14252.0
1698674968.9428782,14246.0
1698674968.9634745,14244.0
1698674968.984071,14244.0
1698674969.0046675,14268.0
1698674969.025264,14290.0
1698674969.04586,14285.0
1698674969.0664563,14273.0
1698674969.087053,14264.0
1698674969.1076493,14265.0
1698674969.1282458,14267.0
1698674969.1488423,14262.0
1698674969.1694388,14248.0
1698674969.190035,14227.0
1698674969.2106311,14218.0
1698674969.2312279,14215.0
1698674969.2518241,14211.0
1698674969.272421,14214.0
1698674969.2930171,14197.0
1698674969.3136134,14220.0
1698674969.33421,14225.0
1698674969.3548062,14220.0
1698674969.3754027,14209.0
1698674969.395999,14202.0
1698674969.4165957,14198.0
1698674969.437192,14190.0
1698674969.4577882,14201.0
1698674969.4783847,14206.0
1698674969.498981,14207.0
1698674969.5195775,14192.0
1698674969.5401738,14183.0
1698674969.5607705,14180.0
1698674969.5813668,14171.0
1698674969.601963,14163.0
1698674969.6225595,14156.0
1698674969.6431558,14148.0
1698674969.663752,14132.0
1698674969.6843486,14126.0
1698674969.704945,14117.0
1698674969.7255416,14107.0
1698674969.7461379,14094.0
1698674969.7667344,14090.0
1698674969.7873306,14096.0
1698674969.807927,14102.0
1698674969.8285234,14114.0
1698674969.8491201,14117.0
1698674969.8697164,14118.0
1698674969.8903127,14125.0
1698674969.9109092,14112.0
1698674969.9315054,14117.0
1698674969.9521017,14118.0
1698674969.9726982,14118.0
1698674969.993295,14111.0
1698674970.0138912,14103.0
1698674970.0344875,14108.0
1698674970.055084,14116.0
1698674970.0756805,14133.0
1698674970.0962765,14139.0
1698674970.116873,14122.0
1698674970.1374695,14108.0
1698674970.158066,14119.0
1698674970.1786623,14132.0
1698674970.1992588,14139.0
1698674970.2198553,14141.0
1698674970.2404513,14144.0
1698674970.261048,14144.0
1698674970.2816443,14147.0
1698674970.3022406,14148.0
1698674970.322837,14151.0
1698674970.3434336,14141.0
1698674970.3640301,14133.0
1698674970.3846262,14127.0
1698674970.405223,14125.0
1698674970.4258192,14135.0
1698674970.4464154,14137.0
1698674970.467012,14134.0
1698674970.4876084,14132.0
1698674970.508205,14120.0
1698674970.528801,14110.0
1698674970.5493977,14095.0
1698674970.569994,14080.0
1698674970.5905902,14068.0
1698674970.6111867,14050.0
1698674970.6317832,14042.0
1698674970.6523798,14032.0
1698674970.6729758,14028.0
1698674970.6935725,14013.0
1698674970.7141688,14004.0
1698674970.734765,14002.0
1698674970.7553616,14005.0
1698674970.775958,13999.0
1698674970.7965543,14025.0
1698674970.8171508,14028.0
1698674970.837747,14039.0
1698674970.8583436,14049.0
1698674970.8789399,14052.0
1698674970.8995364,14078.0
1698674970.9201329,14099.0
1698674970.9407291,14118.0
1698674970.9613256,14133.0
1698674970.9819221,14149.0
1698674971.0025184,14154.0
1698674971.0231147,14157.0
1698674971.0437112,14156.0
1698674971.0643077,14149.0
1698674971.084904,14146.0
1698674971.1055005,14145.0
1698674971.1260967,14140.0
1698674971.1466932,14135.0
1698674971.1672895,14123.0
1698674971.187886,14104.0
1698674971.2084825,14098.0
1698674971.2290788,14090.0
1698674971.2496753,14087.0
1698674971.2702715,14082.0
1698674971.2908678,14079.0
1698674971.3114643,14050.0
1698674971.3320608,14034.0
1698674971.3526573,14035.0
1698674971.3732536,14030.0
1698674971.39385,14025.0
1698674971.4144464,14024.0
1698674971.4350426,14022.0
1698674971.4556391,14018.0
1698674971.4762356,14007.0
1698674971.4968321,14000.0
1698674971.5174284,13996.0
1698674971.538025,13992.0
1698674971.5586212,13985.0
1698674971.5792174,13981.0
1698674971.599814,13973.0
1698674971.6204104,13966.0
1698674971.641007,13961.0
1698674971.6616032,13950.0
1698674971.6821997,13945.0
1698674971.702796,13948.0
1698674971.7233922,13961.0
1698674971.7439888,13978.0
1698674971.7645853,13990.0
1698674971.7851815,13998.0
1698674971.805778,14005.0
1698674971.8263745,14011.0
1698674971.846971,14016.0
1698674971.867567,14022.0
1698674971.8881636,14033.0
1698674971.90876,14038.0
1698674971.9293563,14042.0
1698674971.9499528,14049.0
1698674971.9705493,14061.0
1698674971.9911458,14063.0
1698674972.0117419,14060.0
1698674972.0323384,14057.0
1698674972.052935,14051.0
1698674972.0735312,14042.0
1698674972.0941277,14046.0
1698674972.1147242,14049.0
1698674972.1353207,14048.0
1698674972.1559167,14028.0
1698674972.1765132,14006.0
1698674972.1971097,13987.0
1698674972.217706,13985.0
1698674972.2383025,13985.0
1698674972.258899,13988.0
1698674972.2794955,13994.0
1698674972.3000915,13999.0
1698674972.320688,14008.0
1698674972.3412845,14011.0
1698674972.3618808,14024.0
1698674972.3824773,14023.0
1698674972.4030735,14032.0
1698674972.42367,14024.0
1698674972.4442663,14016.0
1698674972.4648628,14010.0
1698674972.4854593,14003.0
1698674972.5060556,13990.0
1698674972.526652,13962.0
1698674972.5472484,13972.0
1698674972.5678449,13969.0
1698674972.5884414,13963.0
1698674972.6090376,13951.0
1698674972.6296341,13951.0
1698674972.6502304,13942.0
1698674972.670827,13940.0
1698674972.6914232,13943.0
1698674972.7120197,13958.0
1698674972.7326162,13974.0
1698674972.7532125,13981.0
1698674972.773809,13988.0
1698674972.7944052,14001.0
1698674972.8150017,14003.0
1698674972.835598,14006.0
1698674972.8561945,14016.0
1698674972.876791,14025.0
1698674972.8973873,14030.0
1698674972.9179835,14036.0
1698674972.93858,14062.0
1698674972.9591765,14077.0
1698674972.979773,14086.0
1698674973.0003693,14084.0
1698674973.0209658,14085.0
1698674973.041562,14080.0
1698674973.0621583,14075.0
1698674973.0827549,14078.0
1698674973.1033514,14078.0
1698674973.1239479,14081.0
1698674973.1445441,14063.0
1698674973.1651406,14063.0
1698674973.185737,14070.0
1698674973.2063332,14077.0
1698674973.2269297,14080.0
1698674973.247526,14082.0
1698674973.2681227,14079.0
1698674973.288719,14070.0
1698674973.3093154,14059.0
1698674973.3299117,14053.0
1698674973.350508,14046.0
1698674973.3711045,14042.0
1698674973.391701,14032.0
1698674973.4122972,14021.0
1698674973.4328938,14013.0
1698674973.4534903,14005.0
1698674973.474087,13994.0
1698674973.4946828,13991.0
1698674973.5152793,13983.0
1698674973.5358756,13976.0
1698674973.556472,13964.0
1698674973.5770686,13952.0
1698674973.597665,13943.0
1698674973.6182618,13939.0
1698674973.6388576,13933.0
1698674973.659454,13934.0
1698674973.6800504,13950.0
1698674973.7006469,13944.0
1698674973.7212434,13975.0
1698674973.74184,13980.0
1698674973.7624364,13981.0
1698674973.7830324,13991.0
1698674973.803629,14001.0
1698674973.8242252,14013.0
1698674973.8448217,14022.0
1698674973.8654182,14015.0
1698674973.8860147,14047.0
1698674973.906611,14064.0
1698674973.9272072,14079.0
1698674973.9478037,14084.0
1698674973.9684,14082.0
1698674973.9889965,14083.0
1698674974.009593,14082.0
1698674974.0301898,14070.0
1698674974.0507858,14063.0
1698674974.071382,14058.0
1698674974.0919785,14065.0
1698674974.112575,14055.0
1698674974.1331713,14048.0
1698674974.1537678,14053.0
1698674974.1743646,14054.0
1698674974.1949606,14042.0
1698674974.215557,14046.0
1698674974.2361534,14063.0
1698674974.2567499,14060.0
1698674974.2773461,14052.0
1698674974.2979426,14045.0
1698674974.3185391,14041.0
1698674974.3391354,14042.0
1698674974.359732,14048.0
1698674974.380328,14045.0
1698674974.4009244,14037.0
1698674974.421521,14016.0
1698674974.4421175,14022.0
1698674974.4627142,14015.0
1698674974.4833102,14017.0
1698674974.5039067,14007.0
1698674974.524503,13997.0
1698674974.5450993,13986.0
1698674974.5656958,13978.0
1698674974.5862923,13974.0
1698674974.606889,13971.0
1698674974.627485,13970.0
1698674974.6480815,13979.0
1698674974.6686776,13995.0
1698674974.689274,14010.0
1698674974.7098706,14015.0
1698674974.730467,14020.0
1698674974.7510638,14026.0
1698674974.7716599,14032.0
1698674974.7922564,14034.0
1698674974.8128524,14039.0
1698674974.833449,14046.0
1698674974.8540454,14051.0
1698674974.874642,14060.0
1698674974.8952384,14063.0
1698674974.9158347,14078.0
1698674974.9364312,14086.0
1698674974.9570272,14085.0
1698674974.9776237,14083.0
1698674974.9982202,14077.0
1698674975.018817,14067.0
1698674975.039413,14067.0
1698674975.0600095,14073.0
1698674975.080606,14071.0
1698674975.1012025,14068.0
1698674975.1217985,14060.0
1698674975.142395,14064.0
1698674975.1629918,14069.0
1698674975.1835878,14074.0
1698674975.2041843,14082.0
1698674975.2247808,14080.0
1698674975.2453773,14072.0
1698674975.2659733,14069.0
1698674975.2865698,14063.0
1698674975.3071666,14059.0
1698674975.3277626,14055.0
1698674975.348359,14057.0
1698674975.3689556,14057.0
1698674975.389552,14052.0
1698674975.4101481,14042.0
1698674975.4307446,14037.0
1698674975.4513412,14023.0
1698674975.4719374,14023.0
1698674975.492534,14018.0
1698674975.5131304,14007.0
1698674975.5337267,13998.0
1698674975.554323,13990.0
1698674975.5749195,13984.0
1698674975.5955162,13983.0
1698674975.6161122,13971.0
1698674975.6367087,13981.0
1698674975.6573052,13991.0
1698674975.6779015,13999.0
1698674975.6984978,14003.0
1698674975.7190943,14006.0
1698674975.739691,14007.0
1698674975.760287,14007.0
1698674975.7808836,14016.0
1698674975.80148,14028.0
1698674975.8220763,14036.0
1698674975.8426726,14046.0
1698674975.863269,14057.0
1698674975.8838656,14068.0
1698674975.9044619,14074.0
1698674975.9250584,14085.0
1698674975.9456549,14084.0
1698674975.9662511,14081.0
1698674975.9868476,14077.0
1698674976.007444,14070.0
1698674976.0280402,14072.0
1698674976.0486367,14068.0
1698674976.0692332,14056.0
1698674976.0898297,14050.0
1698674976.110426,14050.0
1698674976.1310225,14055.0
1698674976.151619,14067.0
1698674976.172215,14074.0
1698674976.1928115,14081.0
1698674976.213408,14083.0
1698674976.2340045,14083.0
1698674976.2546008,14090.0
1698674976.2751973,14092.0
1698674976.2957938,14100.0
1698674976.3163898,14097.0
1698674976.3369863,14090.0
1698674976.3575828,14080.0
1698674976.3781793,14071.0
1698674976.3987756,14058.0
1698674976.419372,14046.0
1698674976.4399686,14043.0
1698674976.4605646,14033.0
1698674976.481161,14024.0
1698674976.5017576,14018.0
1698674976.522354,14011.0
1698674976.5429504,14003.0
1698674976.563547,14002.0
1698674976.5841432,13994.0
1698674976.6047394,13998.0
1698674976.625336,14007.0
1698674976.6459324,14017.0
1698674976.6665287,14031.0
1698674976.6871252,14040.0
1698674976.7077217,14045.0
1698674976.7283182,14058.0
1698674976.7489142,14066.0
1698674976.7695107,14073.0
1698674976.7901073,14078.0
1698674976.8107035,14088.0
1698674976.8313,14100.0
1698674976.8518965,14115.0
1698674976.872493,14124.0
1698674976.893089,14106.0
1698674976.9136856,14127.0
1698674976.934282,14125.0
1698674976.9548783,14125.0
1698674976.9754748,14111.0
1698674976.9960713,14111.0
1698674977.0166674,14109.0
1698674977.0372639,14106.0
1698674977.0578604,14093.0
1698674977.0784569,14091.0
1698674977.0990531,14082.0
1698674977.1196496,14078.0
1698674977.1402462,14083.0
1698674977.1608422,14082.0
1698674977.1814387,14084.0
1698674977.2020352,14082.0
1698674977.2226317,14080.0
1698674977.243228,14085.0
1698674977.2638245,14094.0
1698674977.284421,14102.0
1698674977.305017,14105.0
1698674977.3256135,14096.0
1698674977.34621,14090.0
1698674977.3668065,14085.0
1698674977.3874028,14077.0
1698674977.4079993,14044.0
1698674977.4285958,14049.0
1698674977.4491918,14042.0
1698674977.4697883,14026.0
1698674977.4903848,14027.0
1698674977.510981,14024.0
1698674977.5315776,14036.0
1698674977.552174,14037.0
1698674977.5727706,14039.0
1698674977.5933669,14037.0
1698674977.6139634,14047.0
1698674977.6345596,14060.0
1698674977.655156,14073.0
1698674977.6757524,14080.0
1698674977.696349,14090.0
1698674977.7169454,14102.0
1698674977.7375414,14107.0
1698674977.7581382,14110.0
1698674977.7787344,14105.0
1698674977.7993307,14104.0
1698674977.8199272,14108.0
1698674977.8405237,14108.0
1698674977.8611202,14103.0
1698674977.8817165,14087.0
1698674977.902313,14086.0
1698674977.9229093,14084.0
1698674977.9435055,14082.0
1698674977.964102,14078.0
1698674977.9846985,14071.0
1698674978.005295,14056.0
1698674978.0258913,14060.0
1698674978.0464878,14045.0
1698674978.067084,14038.0
1698674978.0876803,14039.0
1698674978.1082768,14033.0
1698674978.1288733,14040.0
1698674978.1494694,14049.0
1698674978.170066,14055.0
1698674978.1906626,14067.0
1698674978.211259,14066.0
1698674978.2318552,14081.0
1698674978.2524517,14084.0
1698674978.2730482,14092.0
1698674978.2936442,14104.0
1698674978.314241,14093.0
1698674978.3348374,14114.0
1698674978.3554337,14109.0
1698674978.37603,14109.0
1698674978.3966265,14098.0
1698674978.417223,14081.0
1698674978.437819,14074.0
1698674978.4584157,14063.0
1698674978.4790123,14062.0
1698674978.4996088,14053.0
1698674978.5202048,14052.0
1698674978.5408013,14053.0
1698674978.5613978,14053.0
1698674978.5819938,14061.0
1698674978.6025906,14070.0
1698674978.623187,14076.0
1698674978.6437833,14079.0
1698674978.6643796,14086.0
1698674978.684976,14086.0
1698674978.7055726,14090.0
1698674978.7261689,14069.0
1698674978.7467654,14092.0
1698674978.7673619,14096.0
1698674978.7879584,14094.0
1698674978.8085544,14095.0
1698674978.829151,14096.0
1698674978.8497474,14090.0
1698674978.8703437,14093.0
1698674978.8909402,14093.0
1698674978.9115367,14095.0
1698674978.932133,14089.0
1698674978.9527292,14086.0
1698674978.9733257,14088.0
1698674978.9939222,14078.0
1698674979.0145185,14075.0
1698674979.035115,14074.0
1698674979.0557115,14064.0
1698674979.076308,14061.0
1698674979.096904,14058.0
1698674979.1175005,14056.0
1698674979.1380968,14058.0
1698674979.1586933,14065.0
1698674979.1792898,14081.0
1698674979.1998863,14085.0
1698674979.2204828,14089.0
1698674979.2410789,14088.0
1698674979.2616754,14085.0
1698674979.2822714,14087.0
1698674979.3028681,14091.0
1698674979.3234646,14083.0
1698674979.3440611,14077.0
1698674979.3646576,14073.0
1698674979.385254,14071.0
1698674979.4058502,14064.0
1698674979.4264462,14055.0
1698674979.447043,14048.0
1698674979.4676394,14038.0
1698674979.488236,14032.0
1698674979.5088325,14015.0
1698674979.5294287,14038.0
1698674979.550025,14035.0
1698674979.570621,14034.0
1698674979.5912178,14047.0
1698674979.6118143,14056.0
1698674979.6324105,14070.0
1698674979.653007,14080.0
1698674979.6736035,14074.0
1698674979.6941998,14085.0
1698674979.7147958,14093.0
1698674979.7353926,14100.0
1698674979.755989,14108.0
1698674979.7765853,14118.0
1698674979.7971818,14127.0
1698674979.8177783,14129.0
1698674979.8383746,14129.0
1698674979.8589709,14131.0
1698674979.8795674,14138.0
1698674979.900164,14151.0
1698674979.9207604,14156.0
1698674979.9413567,14160.0
1698674979.9619532,14152.0
1698674979.9825494,14142.0
1698674980.0031457,14140.0
1698674980.0237422,14148.0
1698674980.0443387,14153.0
1698674980.064935,14151.0
1698674980.0855315,14156.0
1698674980.106128,14162.0
1698674980.126724,14163.0
1698674980.1473205,14160.0
1698674980.167917,14154.0
1698674980.1885135,14148.0
1698674980.20911,14149.0
1698674980.2297063,14143.0
1698674980.2503028,14132.0
1698674980.270899,14120.0
1698674980.2914953,14107.0
1698674980.3120918,14090.0
1698674980.3326883,14078.0
1698674980.3532848,14064.0
1698674980.373881,14057.0
1698674980.3944776,14053.0
1698674980.4150739,14044.0
1698674980.4356701,14053.0
1698674980.4562666,14052.0
1698674980.4768631,14053.0
1698674980.4974597,14054.0
1698674980.518056,14054.0
1698674980.5386524,14051.0
1698674980.5592487,14040.0
1698674980.579845,14033.0
1698674980.6004415,14023.0
1698674980.621038,14018.0
1698674980.6416345,14010.0
1698674980.6622307,14004.0
1698674980.6828272,13990.0
1698674980.7034235,13988.0
1698674980.7240198,13981.0
1698674980.7446163,13975.0
1698674980.7652125,13968.0
1698674980.785809,13958.0
1698674980.8064055,13953.0
1698674980.827002,13950.0
1698674980.8475983,13950.0
1698674980.8681946,13956.0
1698674980.888791,13958.0
1698674980.9093876,13959.0
1698674980.9299839,13967.0
1698674980.9505804,13972.0
1698674980.9711769,13970.0
1698674980.9917731,13974.0
1698674981.0123696,13981.0
1698674981.032966,13982.0
1698674981.0535624,13980.0
1698674981.0741587,13976.0
1698674981.0947552,13973.0
1698674981.1153517,13969.0
1698674981.135948,13967.0
1698674981.1565444,13964.0
1698674981.1771407,13967.0
1698674981.197737,13968.0
1698674981.2183335,13969.0
1698674981.23893,13970.0
1698674981.2595263,13967.0
1698674981.2801228,13964.0
1698674981.3007193,13962.0
1698674981.3213155,13964.0
1698674981.341912,13970.0
1698674981.3625083,13973.0
1698674981.3831048,13970.0
1698674981.403701,13973.0
1698674981.4242976,13970.0
1698674981.444894,13974.0
1698674981.4654903,13977.0
1698674981.4860868,13975.0
1698674981.506683,13974.0
1698674981.5272796,13974.0
1698674981.547876,13980.0
1698674981.5684724,13988.0
1698674981.589069,13997.0
1698674981.6096652,14004.0
1698674981.6302617,14002.0
1698674981.650858,13993.0
1698674981.6714544,13979.0
1698674981.6920507,13966.0
1698674981.7126472,13952.0
1698674981.7332437,13945.0
1698674981.7538397,13944.0
1698674981.7744362,13935.0
1698674981.7950327,13926.0
1698674981.8156292,13917.0
1698674981.8362255,13913.0
1698674981.856822,13915.0
1698674981.8774185,13915.0
1698674981.8980148,13920.0
1698674981.918611,13923.0
1698674981.9392076,13932.0
1698674981.959804,13942.0
1698674981.9804003,13951.0
1698674982.0009968,13960.0
1698674982.0215933,13964.0
1698674982.0421896,13965.0
1698674982.0627859,13970.0
1698674982.0833824,13976.0
1698674982.1039789,13978.0
1698674982.1245751,13979.0
1698674982.1451716,13980.0
1698674982.1657681,13989.0
1698674982.1863644,13994.0
1698674982.2069607,13992.0
1698674982.2275572,13989.0
1698674982.2481534,13983.0
1698674982.26875,13975.0
1698674982.2893465,13964.0
1698674982.309943,13954.0
1698674982.3305392,13942.0
1698674982.3511355,13924.0
1698674982.371732,13912.0
1698674982.3923283,13901.0
1698674982.4129248,13908.0
1698674982.4335213,13922.0
1698674982.4541178,13928.0
1698674982.474714,13929.0
1698674982.4953103,13931.0
1698674982.5159068,13939.0
1698674982.536503,13948.0
1698674982.5570996,13960.0
1698674982.577696,13973.0
1698674982.5982926,13983.0
1698674982.6188889,13984.0
1698674982.6394851,13980.0
1698674982.6600816,13977.0
1698674982.680678,13977.0
1698674982.7012744,13975.0
1698674982.721871,13963.0
1698674982.7424674,13961.0
1698674982.7630637,13947.0
1698674982.7836602,13939.0
1698674982.8042564,13938.0
1698674982.8248527,13934.0
1698674982.8454492,13939.0
1698674982.8660457,13941.0
1698674982.886642,13948.0
1698674982.9072382,13948.0
1698674982.927835,13959.0
1698674982.9484313,13964.0
1698674982.9690275,13966.0
1698674982.989624,13971.0
1698674983.0102205,13974.0
1698674983.0308168,13975.0
1698674983.051413,13984.0
1698674983.0720098,13983.0
1698674983.092606,13986.0
1698674983.1132023,13989.0
1698674983.1337988,13995.0
1698674983.1543953,14003.0
1698674983.1749916,14001.0
1698674983.1955879,13999.0
1698674983.2161846,13989.0
1698674983.2367806,13981.0
1698674983.2573771,13975.0
1698674983.2779737,13964.0
1698674983.2985702,13959.0
1698674983.3191664,13958.0
1698674983.339763,13961.0
1698674983.3603594,13958.0
1698674983.3809555,13946.0
1698674983.401552,13936.0
1698674983.4221485,13942.0
1698674983.442745,13935.0
1698674983.4633412,13956.0
1698674983.4839375,13956.0
1698674983.5045342,13961.0
1698674983.5251303,13959.0
1698674983.5457268,13967.0
1698674983.5663233,13975.0
1698674983.5869198,13986.0
1698674983.607516,13984.0
1698674983.6281123,13977.0
1698674983.648709,13979.0
1698674983.6693053,13973.0
1698674983.6899016,13964.0
1698674983.710498,13952.0
1698674983.7310946,13942.0
1698674983.7516909,13935.0
1698674983.7722874,13925.0
1698674983.7928839,13923.0
1698674983.8134801,13920.0
1698674983.8340764,13924.0
1698674983.854673,13924.0
1698674983.8752692,13931.0
1698674983.8958654,13939.0
1698674983.9164622,13951.0
1698674983.9370587,13958.0
1698674983.957655,13971.0
1698674983.9782512,13978.0
1698674983.9988477,13963.0
1698674984.019444,13978.0
1698674984.0400403,13982.0
1698674984.060637,13989.0
1698674984.0812335,13992.0
1698674984.1018298,13997.0
1698674984.122426,13996.0
1698674984.1430225,13998.0
1698674984.1636188,13998.0
1698674984.184215,14012.0
1698674984.2048118,14016.0
1698674984.2254083,14015.0
1698674984.2460046,14006.0
1698674984.2666008,13999.0
1698674984.2871974,13994.0
1698674984.3077936,13994.0
1698674984.32839,13987.0
1698674984.3489866,13969.0
1698674984.369583,13959.0
1698674984.3901794,13955.0
1698674984.410776,13958.0
1698674984.4313722,13966.0
1698674984.4519684,13971.0
1698674984.472565,13978.0
1698674984.4931614,13975.0
1698674984.5137577,13989.0
1698674984.5343542,13997.0
1698674984.5549507,14008.0
1698674984.575547,14007.0
1698674984.5961432,13989.0
1698674984.6167395,13999.0
1698674984.6373363,13993.0
1698674984.6579325,13989.0
1698674984.678529,13979.0
1698674984.6991255,13971.0
1698674984.7197218,13969.0
1698674984.740318,13966.0
1698674984.7609146,13971.0
1698674984.781511,13972.0
1698674984.8021073,13967.0
1698674984.822704,13960.0
1698674984.8433003,13960.0
1698674984.8638964,13972.0
1698674984.8844929,13986.0
1698674984.9050894,14003.0
1698674984.925686,14017.0
1698674984.9462821,14023.0
1698674984.966879,14029.0
1698674984.9874752,14031.0
1698674985.0080712,14019.0
1698674985.0286674,14039.0
1698674985.0492642,14044.0
1698674985.0698607,14041.0
1698674985.090457,14050.0
1698674985.1110537,14054.0
1698674985.13165,14056.0
1698674985.152246,14053.0
1698674985.1728423,14052.0
1698674985.193439,14045.0
1698674985.2140355,14036.0
1698674985.2346318,14028.0
1698674985.2552285,14012.0
1698674985.2758248,14012.0
1698674985.296421,14001.0
1698674985.317017,13990.0
1698674985.3376138,13987.0
1698674985.35821,13994.0
1698674985.3788066,14009.0
1698674985.399403,14018.0
1698674985.4199996,14020.0
1698674985.4405959,14014.0
1698674985.461192,14012.0
1698674985.4817886,13985.0
1698674985.502385,14007.0
1698674985.5229814,14015.0
1698674985.543578,14020.0
1698674985.5641744,14021.0
1698674985.5847707,14019.0
1698674985.605367,14015.0
1698674985.6259634,14008.0
1698674985.6465597,13992.0
1698674985.6671562,13991.0
1698674985.6877527,13988.0
1698674985.7083492,13976.0
1698674985.7289455,13974.0
1698674985.7495415,13975.0
1698674985.7701383,13969.0
1698674985.7907345,13965.0
1698674985.811331,13964.0
1698674985.8319275,13962.0
1698674985.852524,13972.0
1698674985.8731203,13985.0
1698674985.8937166,13994.0
1698674985.914313,13994.0
1698674985.9349093,13993.0
1698674985.955506,13993.0
1698674985.9761024,13995.0
1698674985.9966986,13993.0
1698674986.0172951,13993.0
1698674986.0378914,13995.0
1698674986.058488,14007.0
1698674986.0790842,14023.0
1698674986.099681,14033.0
1698674986.1202772,14033.0
1698674986.1408734,14039.0
1698674986.16147,14039.0
1698674986.1820664,14034.0
1698674986.2026627,14005.0
1698674986.223259,14019.0
1698674986.2438557,14018.0
1698674986.264452,14019.0
1698674986.2850482,14014.0
1698674986.3056448,14015.0
1698674986.3262413,14026.0
1698674986.3468375,14034.0
1698674986.3674338,14039.0
1698674986.3880305,14041.0
1698674986.4086268,14043.0
1698674986.429223,14036.0
1698674986.4498196,14032.0
1698674986.470416,14026.0
1698674986.491012,14023.0
1698674986.5116086,14028.0
1698674986.532205,14022.0
1698674986.5528016,14020.0
1698674986.5733979,14015.0
1698674986.5939944,14007.0
1698674986.614591,14000.0
1698674986.635187,13991.0
1698674986.6557834,13979.0
1698674986.67638,13976.0
1698674986.6969764,13973.0
1698674986.7175727,13976.0
1698674986.7381692,13977.0
1698674986.7587657,13982.0
1698674986.7793617,13986.0
1698674986.7999585,13986.0
1698674986.8205547,13994.0
1698674986.8411512,14001.0
1698674986.8617475,14016.0
1698674986.882344,14025.0
1698674986.9029405,14028.0
1698674986.9235365,14031.0
1698674986.944133,14028.0
1698674986.9647295,14037.0
1698674986.9853258,14040.0
1698674987.0059223,14046.0
1698674987.0265188,14056.0
1698674987.0471153,14061.0
1698674987.0677116,14073.0
1698674987.088308,14082.0
1698674987.1089044,14087.0
1698674987.1295006,14081.0
1698674987.1500971,14077.0
1698674987.1706936,14071.0
1698674987.1912901,14065.0
1698674987.2118864,14059.0
1698674987.232483,14062.0
1698674987.2530792,14064.0
1698674987.2736754,14053.0
1698674987.294272,14062.0
1698674987.3148685,14069.0
1698674987.335465,14073.0
1698674987.3560612,14071.0
1698674987.3766577,14061.0
1698674987.397254,14049.0
1698674987.4178503,14040.0
1698674987.4384468,14032.0
1698674987.4590433,14029.0
1698674987.4796395,14024.0
1698674987.500236,14019.0
1698674987.5208325,14020.0
1698674987.5414288,14011.0
1698674987.562025,14012.0
1698674987.5826216,14005.0
1698674987.603218,13998.0
1698674987.6238143,13987.0
1698674987.6444108,13984.0
1698674987.665007,13972.0
1698674987.6856036,13968.0
1698674987.7062,13968.0
1698674987.7267964,13967.0
1698674987.747393,13964.0
1698674987.7679892,13962.0
1698674987.7885857,13964.0
1698674987.809182,13971.0
1698674987.8297784,13986.0
1698674987.8503747,13998.0
1698674987.8709712,14001.0
1698674987.8915677,14007.0
1698674987.912164,14005.0
1698674987.9327605,14006.0
1698674987.953357,14007.0
1698674987.973953,14003.0
1698674987.9945495,14016.0
1698674988.015146,14025.0
1698674988.0357425,14040.0
1698674988.0563388,14049.0
1698674988.0769353,14055.0
1698674988.0975316,14053.0
1698674988.1181278,14052.0
1698674988.1387243,14050.0
1698674988.1593208,14043.0
1698674988.1799173,14033.0
1698674988.2005136,14032.0
1698674988.22111,14038.0
1698674988.2417064,14031.0
1698674988.2623026,14033.0
1698674988.2828991,14033.0
1698674988.3034956,14034.0
1698674988.3240921,14037.0
1698674988.3446884,14038.0
1698674988.365285,14035.0
1698674988.3858812,14029.0
1698674988.4064775,14024.0
1698674988.427074,14019.0
1698674988.4476705,14016.0
1698674988.468267,14013.0
1698674988.4888632,14013.0
1698674988.5094597,14017.0
1698674988.5300562,14021.0
1698674988.5506523,14016.0
1698674988.5712488,14010.0
1698674988.5918453,13998.0
1698674988.6124415,13982.0
1698674988.633038,13979.0
1698674988.6536345,13975.0
1698674988.674231,13973.0
1698674988.6948273,13973.0
1698674988.7154236,13980.0
1698674988.73602,13974.0
1698674988.7566164,13980.0
1698674988.7772129,13983.0
1698674988.7978091,13993.0
1698674988.8184059,14008.0
1698674988.8390021,14023.0
1698674988.8595984,14031.0
1698674988.880195,14032.0
1698674988.9007912,14032.0
1698674988.9213877,14031.0
1698674988.941984,14030.0
1698674988.9625807,14030.0
1698674988.983177,14036.0
1698674989.0037732,14039.0
1698674989.0243697,14046.0
1698674989.044966,14058.0
1698674989.0655625,14066.0
1698674989.086159,14078.0
1698674989.1067553,14077.0
1698674989.1273518,14071.0
1698674989.147948,14065.0
1698674989.1685445,14061.0
1698674989.1891408,14054.0
1698674989.2097373,14058.0
1698674989.2303336,14064.0
1698674989.25093,14054.0
1698674989.2715266,14048.0
1698674989.2921228,14051.0
1698674989.3127193,14049.0
1698674989.3333156,14049.0
1698674989.353912,14048.0
1698674989.3745084,14022.0
1698674989.395105,14037.0
1698674989.4157014,14034.0
1698674989.4362977,14035.0
1698674989.4568942,14034.0
1698674989.4774904,14035.0
1698674989.498087,14034.0
1698674989.5186832,14022.0
1698674989.5392797,14020.0
1698674989.5598762,14012.0
1698674989.580473,14004.0
1698674989.6010687,13995.0
1698674989.6216652,13967.0
1698674989.6422617,13984.0
1698674989.6628582,13978.0
1698674989.6834545,13979.0
1698674989.704051,13979.0
1698674989.7246478,13972.0
1698674989.7452435,13968.0
1698674989.76584,13972.0
1698674989.7864363,13978.0
1698674989.807033,13989.0
1698674989.8276293,14002.0
1698674989.8482258,14018.0
1698674989.8688226,14022.0
1698674989.8894184,14024.0
1698674989.9100149,14028.0
1698674989.9306111,14031.0
1698674989.9512079,14037.0
1698674989.9718041,14045.0
1698674989.9924006,14049.0
1698674990.0129972,14055.0
1698674990.0335932,14065.0
1698674990.0541897,14077.0
1698674990.074786,14079.0
1698674990.0953825,14076.0
1698674990.115979,14066.0
1698674990.1365755,14065.0
1698674990.1571722,14052.0
1698674990.177768,14046.0
1698674990.1983645,14042.0
1698674990.218961,14028.0
1698674990.2395573,14043.0
1698674990.2601538,14042.0
1698674990.2807503,14033.0
1698674990.3013468,14036.0
1698674990.3219428,14032.0
1698674990.3425393,14038.0
1698674990.3631356,14038.0
1698674990.383732,14036.0
1698674990.4043286,14032.0
1698674990.424925,14027.0
1698674990.4455216,14031.0
1698674990.4661179,14035.0
1698674990.4867141,14041.0
1698674990.5073104,14042.0
1698674990.527907,14022.0
1698674990.5485034,14035.0
1698674990.5691001,14027.0
1698674990.5896964,14019.0
1698674990.6102927,14013.0
1698674990.630889,14003.0
1698674990.6514854,14000.0
1698674990.6720817,13997.0
1698674990.6926782,13992.0
1698674990.713275,13990.0
1698674990.733871,13982.0
1698674990.7544675,13979.0
1698674990.7750638,13975.0
1698674990.7956603,13976.0
1698674990.8162565,13989.0
1698674990.836853,14003.0
1698674990.8574498,14017.0
1698674990.8780458,14015.0
1698674990.8986423,14019.0
1698674990.9192383,14024.0
1698674990.939835,14028.0
1698674990.9604313,14036.0
1698674990.9810278,14041.0
1698674991.0016246,14051.0
1698674991.0222206,14054.0
1698674991.042817,14034.0
1698674991.0634131,14054.0
1698674991.0840096,14049.0
1698674991.1046062,14054.0
1698674991.1252027,14053.0
1698674991.1457992,14041.0
1698674991.1663954,14042.0
1698674991.186992,14031.0
1698674991.2075884,14024.0
1698674991.2281845,14021.0
1698674991.248781,14012.0
1698674991.2693775,14001.0
1698674991.2899742,13997.0
1698674991.3105702,13997.0
1698674991.3311667,14005.0
1698674991.3517632,14005.0
1698674991.3723593,14008.0
1698674991.3929558,14013.0
1698674991.4135523,14016.0
1698674991.4341488,14013.0
1698674991.454745,14016.0
1698674991.4753416,14012.0
1698674991.495938,14012.0
1698674991.516534,14004.0
1698674991.5371306,14001.0
1698674991.557727,13997.0
1698674991.5783236,13989.0
1698674991.5989199,13981.0
1698674991.6195164,13972.0
1698674991.6401129,13971.0
1698674991.660709,13965.0
1698674991.6813054,13965.0
1698674991.7019022,13964.0
1698674991.7224982,13962.0
1698674991.7430947,13967.0
1698674991.7636912,13970.0
1698674991.7842877,13977.0
1698674991.8048837,13987.0
1698674991.8254802,13998.0
1698674991.846077,14007.0
1698674991.866673,14014.0
1698674991.8872695,14016.0
1698674991.907866,14013.0
1698674991.9284625,14016.0
1698674991.9490585,14018.0
1698674991.969655,14024.0
1698674991.9902518,14029.0
1698674992.0108478,14015.0
1698674992.0314443,14037.0
1698674992.0520408,14035.0
1698674992.0726373,14013.0
1698674992.0932336,14033.0
1698674992.1138299,14026.0
1698674992.1344266,14027.0
1698674992.1550226,14016.0
1698674992.1756191,14009.0
1698674992.1962156,13994.0
1698674992.216812,13985.0
1698674992.2374084,13978.0
1698674992.2580047,13970.0
1698674992.2786012,13969.0
1698674992.2991974,13966.0
1698674992.319794,13959.0
1698674992.3403904,13949.0
1698674992.3609867,13941.0
1698674992.3815832,13935.0
1698674992.4021795,13929.0
1698674992.422776,13932.0
1698674992.4433722,13933.0
1698674992.4639688,13934.0
1698674992.4845653,13937.0
1698674992.5051615,13917.0
1698674992.525758,13941.0
1698674992.5463543,13946.0
1698674992.5669508,13949.0
1698674992.587547,13955.0
1698674992.6081436,13956.0
1698674992.62874,13961.0
1698674992.6493363,13958.0
1698674992.6699328,13957.0
1698674992.690529,13950.0
1698674992.7111254,13947.0
1698674992.7317219,13947.0
1698674992.7523184,13944.0
1698674992.772915,13945.0
1698674992.7935112,13925.0
1698674992.8141077,13949.0
1698674992.8347042,13953.0
1698674992.8553002,13960.0
1698674992.8758967,13965.0
1698674992.8964932,13965.0
1698674992.9170897,13967.0
1698674992.937686,13968.0
1698674992.9582825,13968.0
1698674992.978879,13969.0
1698674992.999475,13971.0
1698674993.0200715,13973.0
1698674993.040668,13971.0
1698674993.0612645,13969.0
1698674993.0818608,13962.0
1698674993.1024573,13959.0
1698674993.1230538,13955.0
1698674993.1436498,13945.0
1698674993.1642463,13932.0
1698674993.1848428,13919.0
1698674993.205439,13916.0
1698674993.2260356,13898.0
1698674993.246632,13880.0
1698674993.2672286,13869.0
1698674993.2878246,13860.0
1698674993.3084211,13852.0
1698674993.3290176,13850.0
1698674993.349614,13855.0
1698674993.3702104,13851.0
1698674993.390807,13856.0
1698674993.4114034,13866.0
1698674993.4319994,13890.0
1698674993.452596,13924.0
1698674993.4731925,13949.0
1698674993.4937887,13984.0
1698674993.5143852,14019.0
1698674993.5349817,14059.0
1698674993.555578,14105.0
1698674993.5761743,14160.0
1698674993.5967708,14221.0
1698674993.6173673,14289.0
1698674993.6379635,14345.0
1698674993.65856,14404.0
1698674993.6791565,14461.0
1698674993.699753,14516.0
1698674993.720349,14569.0
1698674993.7409456,14630.0
1698674993.761542,14683.0
1698674993.7821383,14735.0
1698674993.8027349,14782.0
1698674993.8233314,14832.0
1698674993.8439274,14876.0
1698674993.8645241,14916.0
1698674993.8851204,14951.0
1698674993.905717,14983.0
1698674993.9263132,15022.0
1698674993.9469097,15055.0
1698674993.9675062,15081.0
1698674993.9881022,15112.0
1698674994.008699,15140.0
1698674994.0292952,15165.0
1698674994.0498917,15187.0
1698674994.070488,15189.0
1698674994.0910845,15224.0
1698674994.111681,15244.0
1698674994.132277,15262.0
1698674994.1528738,15279.0
1698674994.17347,15291.0
1698674994.1940665,15307.0
1698674994.2146628,15313.0
1698674994.2352593,15330.0
1698674994.2558558,15348.0
1698674994.2764518,15362.0
1698674994.2970486,15375.0
1698674994.3176448,15389.0
1698674994.338241,15404.0
1698674994.3588376,15425.0
1698674994.379434,15438.0
1698674994.4000306,15452.0
1698674994.4206269,15464.0
1698674994.4412234,15480.0
1698674994.4618196,15488.0
1698674994.482416,15485.0
1698674994.5030124,15484.0
1698674994.523609,15482.0
1698674994.5442052,15478.0
1698674994.5648017,15472.0
1698674994.5853982,15474.0
1698674994.6059947,15477.0
1698674994.6265907,15479.0
1698674994.6471872,15487.0
1698674994.6677837,15490.0
1698674994.6883798,15503.0
1698674994.7089765,15510.0
1698674994.729573,15519.0
1698674994.7501695,15522.0
1698674994.7707655,15528.0
1698674994.791362,15525.0
1698674994.8119586,15532.0
1698674994.8325548,15534.0
1698674994.8531513,15537.0
1698674994.8737478,15539.0
1698674994.8943443,15548.0
1698674994.9149404,15553.0
1698674994.9355369,15566.0
1698674994.9561334,15572.0
1698674994.9767294,15585.0
1698674994.9973261,15590.0
1698674995.0179226,15601.0
1698674995.0385191,15613.0
1698674995.0591152,15621.0
1698674995.0797117,15642.0
1698674995.1003082,15647.0
1698674995.1209042,15658.0
1698674995.141501,15662.0
1698674995.1620975,15675.0
1698674995.182694,15683.0
1698674995.20329,15688.0
1698674995.2238865,15693.0
1698674995.244483,15700.0
1698674995.265079,15704.0
1698674995.2856758,15707.0
1698674995.3062723,15715.0
1698674995.326869,15720.0
1698674995.3474648,15727.0
1698674995.3680613,15730.0
1698674995.3886578,15740.0
1698674995.409254,15747.0
1698674995.4298506,15751.0
1698674995.450447,15763.0
1698674995.4710436,15766.0
1698674995.4916399,15777.0
1698674995.512236,15782.0
1698674995.5328326,15792.0
1698674995.553429,15776.0
1698674995.5740254,15800.0
1698674995.594622,15805.0
1698674995.6152184,15798.0
1698674995.6358147,15792.0
1698674995.656411,15784.0
1698674995.6770072,15779.0
1698674995.6976037,15769.0
1698674995.7182002,15761.0
1698674995.7387967,15753.0
1698674995.759393,15745.0
1698674995.7799895,15742.0
1698674995.8005857,15738.0
1698674995.8211818,15735.0
1698674995.8417785,15729.0
1698674995.862375,15727.0
1698674995.8829715,15723.0
1698674995.903568,15722.0
1698674995.9241643,15719.0
1698674995.9447606,15714.0
1698674995.9653568,15714.0
1698674995.9859533,15709.0
1698674996.0065498,15701.0
1698674996.0271463,15693.0
1698674996.0477428,15676.0
1698674996.068339,15654.0
1698674996.0889354,15631.0
1698674996.1095314,15645.0
1698674996.1301281,15646.0
1698674996.1507246,15644.0
1698674996.1713212,15646.0
1698674996.1919174,15642.0
1698674996.212514,15637.0
1698674996.2331102,15627.0
1698674996.2537062,15609.0
1698674996.274303,15608.0
1698674996.2948995,15602.0
1698674996.315496,15608.0
1698674996.3360922,15605.0
1698674996.3566887,15600.0
1698674996.3772852,15586.0
1698674996.397881,15574.0
1698674996.4184778,15573.0
1698674996.4390743,15568.0
1698674996.4596708,15569.0
1698674996.480267,15561.0
1698674996.5008636,15555.0
1698674996.52146,15546.0
1698674996.542056,15531.0
1698674996.5626526,15522.0
1698674996.583249,15513.0
1698674996.6038456,15502.0
1698674996.6244419,15493.0
1698674996.6450384,15488.0
1698674996.6656349,15480.0
1698674996.686231,15478.0
1698674996.7068274,15476.0
1698674996.727424,15468.0
1698674996.7480204,15464.0
1698674996.7686167,15461.0
1698674996.7892132,15450.0
1698674996.8098097,15443.0
1698674996.8304057,15444.0
1698674996.8510022,15434.0
1698674996.8715987,15427.0
1698674996.892195,15426.0
1698674996.9127915,15421.0
1698674996.933388,15420.0
1698674996.9539843,15409.0
1698674996.9745805,15401.0
1698674996.995177,15389.0
1698674997.0157735,15388.0
1698674997.03637,15376.0
1698674997.0569663,15367.0
1698674997.0775628,15361.0
1698674997.098159,15351.0
1698674997.1187553,15346.0
1698674997.1393518,15331.0
1698674997.1599483,15318.0
1698674997.1805449,15306.0
1698674997.201141,15291.0
1698674997.2217376,15278.0
1698674997.242334,15262.0
1698674997.2629304,15249.0
1698674997.2835267,15238.0
1698674997.3041232,15228.0
1698674997.3247194,15213.0
1698674997.345316,15200.0
1698674997.3659124,15201.0
1698674997.3865087,15187.0
1698674997.4071052,15176.0
1698674997.4277015,15169.0
1698674997.448298,15159.0
1698674997.4688942,15152.0
1698674997.4894907,15143.0
1698674997.5100873,15134.0
1698674997.5306835,15128.0
1698674997.55128,15122.0
1698674997.5718763,15108.0
1698674997.5924728,15102.0
1698674997.613069,15096.0
1698674997.6336656,15093.0
1698674997.654262,15090.0
1698674997.6748583,15090.0
1698674997.6954548,15090.0
1698674997.716051,15086.0
1698674997.7366476,15084.0
1698674997.7572439,15082.0
1698674997.7778404,15083.0
1698674997.7984369,15081.0
1698674997.8190331,15082.0
1698674997.8396297,15081.0
1698674997.860226,15080.0
1698674997.8808224,15081.0
1698674997.9014187,15082.0
1698674997.9220152,15078.0
1698674997.9426115,15072.0
1698674997.963208,15070.0
1698674997.9838045,15068.0
1698674998.004401,15065.0
1698674998.024997,15069.0
1698674998.0455935,15068.0
1698674998.06619,15072.0
1698674998.0867863,15078.0
1698674998.1073828,15087.0
1698674998.1279793,15088.0
1698674998.1485758,15095.0
1698674998.169172,15104.0
1698674998.1897683,15114.0
1698674998.2103648,15115.0
1698674998.230961,15128.0
1698674998.2515576,15139.0
1698674998.272154,15143.0
1698674998.2927506,15151.0
1698674998.3133466,15155.0
1698674998.3339431,15157.0
1698674998.3545396,15167.0
1698674998.375136,15175.0
1698674998.3957324,15178.0
1698674998.416329,15181.0
1698674998.4369254,15189.0
1698674998.4575214,15199.0
1698674998.478118,15200.0
1698674998.4987144,15206.0
1698674998.5193107,15217.0
1698674998.5399072,15222.0
1698674998.5605037,15226.0
1698674998.5811,15228.0
1698674998.6016963,15221.0
1698674998.6222928,15213.0
1698674998.6428893,15201.0
1698674998.6634855,15189.0
1698674998.684082,15176.0
1698674998.7046785,15158.0
1698674998.7252748,15141.0
1698674998.745871,15124.0
1698674998.7664676,15112.0
1698674998.787064,15097.0
1698674998.8076603,15097.0
1698674998.8282568,15082.0
1698674998.8488533,15077.0
1698674998.8694496,15070.0
1698674998.890046,15063.0
1698674998.9106424,15054.0
1698674998.9312387,15029.0
1698674998.9518352,15047.0
1698674998.9724317,15044.0
1698674998.9930282,15035.0
