timestamp,ppg
1698411887.0114048,13339.0
1698411887.0318289,13331.0
1698411887.052253,13337.0
1698411887.072677,13326.0
1698411887.0931008,13323.0
1698411887.113525,13312.0
1698411887.133949,13316.0
1698411887.154373,13314.0
1698411887.174797,13314.0
1698411887.1952212,13306.0
1698411887.2156453,13304.0
1698411887.2360692,13300.0
1698411887.2564933,13302.0
1698411887.2769175,13291.0
1698411887.2973416,13295.0
1698411887.3177657,13292.0
1698411887.3381896,13284.0
1698411887.3586135,13282.0
1698411887.3790376,13285.0
1698411887.3994617,13284.0
1698411887.4198854,13281.0
1698411887.4403098,13284.0
1698411887.460734,13280.0
1698411887.481158,13280.0
1698411887.5015821,13279.0
1698411887.522006,13276.0
1698411887.5424302,13275.0
1698411887.5628543,13273.0
1698411887.5832784,13273.0
1698411887.6037023,13273.0
1698411887.6241262,13270.0
1698411887.6445503,13271.0
1698411887.6649745,13266.0
1698411887.6853983,13262.0
1698411887.7058225,13263.0
1698411887.7262466,13256.0
1698411887.746671,13262.0
1698411887.7670946,13256.0
1698411887.7875187,13255.0
1698411887.8079429,13252.0
1698411887.828367,13249.0
1698411887.8487911,13240.0
1698411887.8692148,13244.0
1698411887.889639,13229.0
1698411887.910063,13230.0
1698411887.9304872,13219.0
1698411887.950911,13218.0
1698411887.9713352,13212.0
1698411887.9917593,13207.0
1698411888.0121832,13205.0
1698411888.0326073,13203.0
1698411888.0530314,13201.0
1698411888.0734556,13201.0
1698411888.0938797,13197.0
1698411888.1143038,13200.0
1698411888.1347275,13202.0
1698411888.1551516,13197.0
1698411888.1755757,13203.0
1698411888.1959999,13201.0
1698411888.2164237,13199.0
1698411888.2368479,13203.0
1698411888.257272,13210.0
1698411888.2776961,13222.0
1698411888.29812,13234.0
1698411888.3185441,13240.0
1698411888.3389685,13258.0
1698411888.3593924,13264.0
1698411888.3798163,13276.0
1698411888.4002402,13281.0
1698411888.4206643,13285.0
1698411888.4410884,13285.0
1698411888.4615126,13285.0
1698411888.4819362,13282.0
1698411888.5023606,13279.0
1698411888.522785,13285.0
1698411888.5432088,13284.0
1698411888.5636327,13289.0
1698411888.5840569,13287.0
1698411888.604481,13288.0
1698411888.624905,13288.0
1698411888.6453288,13283.0
1698411888.665753,13278.0
1698411888.686177,13272.0
1698411888.7066011,13268.0
1698411888.727025,13266.0
1698411888.7474492,13274.0
1698411888.7678733,13290.0
1698411888.7882974,13305.0
1698411888.8087215,13316.0
1698411888.8291454,13337.0
1698411888.8495696,13359.0
1698411888.8699937,13375.0
1698411888.8904176,13387.0
1698411888.9108415,13400.0
1698411888.9312656,13407.0
1698411888.9516897,13419.0
1698411888.9721138,13427.0
1698411888.9925377,13439.0
1698411889.0129619,13442.0
1698411889.033386,13440.0
1698411889.0538101,13441.0
1698411889.0742338,13441.0
1698411889.0946581,13448.0
1698411889.1150825,13452.0
1698411889.1355064,13460.0
1698411889.1559305,13472.0
1698411889.1763542,13483.0
1698411889.1967783,13489.0
1698411889.2172024,13494.0
1698411889.2376266,13499.0
1698411889.2580502,13512.0
1698411889.2784746,13516.0
1698411889.2988987,13523.0
1698411889.3193228,13532.0
1698411889.3397467,13541.0
1698411889.3601708,13541.0
1698411889.380595,13553.0
1698411889.401019,13553.0
1698411889.421443,13549.0
1698411889.4418669,13547.0
1698411889.462291,13546.0
1698411889.4827151,13538.0
1698411889.5031393,13540.0
1698411889.5235631,13533.0
1698411889.5439873,13527.0
1698411889.5644114,13519.0
1698411889.5848355,13511.0
1698411889.6052594,13502.0
1698411889.6256835,13494.0
1698411889.6461077,13487.0
1698411889.6665316,13480.0
1698411889.6869555,13481.0
1698411889.7073796,13476.0
1698411889.7278037,13478.0
1698411889.7482278,13473.0
1698411889.7686522,13472.0
1698411889.7890759,13466.0
1698411889.8095,13469.0
1698411889.829924,13464.0
1698411889.850348,13464.0
1698411889.8707721,13462.0
1698411889.8911963,13457.0
1698411889.9116204,13457.0
1698411889.9320445,13460.0
1698411889.9524684,13458.0
1698411889.9728923,13454.0
1698411889.9933164,13455.0
1698411890.0137405,13457.0
1698411890.0341647,13453.0
1698411890.0545886,13454.0
1698411890.0750127,13450.0
1698411890.0954368,13451.0
1698411890.115861,13447.0
1698411890.1362848,13447.0
1698411890.156709,13448.0
1698411890.177133,13444.0
1698411890.1975572,13446.0
1698411890.2179809,13441.0
1698411890.238405,13440.0
1698411890.258829,13439.0
1698411890.2792532,13439.0
1698411890.2996771,13438.0
1698411890.3201013,13439.0
1698411890.3405254,13435.0
1698411890.3609498,13430.0
1698411890.3813736,13432.0
1698411890.4017975,13428.0
1698411890.4222217,13421.0
1698411890.4426458,13418.0
1698411890.4630697,13415.0
1698411890.4834936,13412.0
1698411890.5039175,13405.0
1698411890.5243418,13399.0
1698411890.5447662,13404.0
1698411890.5651898,13407.0
1698411890.585614,13399.0
1698411890.606038,13398.0
1698411890.6264622,13401.0
1698411890.6468863,13394.0
1698411890.6673102,13399.0
1698411890.6877344,13398.0
1698411890.7081585,13393.0
1698411890.7285826,13392.0
1698411890.7490063,13389.0
1698411890.7694304,13389.0
1698411890.7898545,13384.0
1698411890.8102787,13380.0
1698411890.8307025,13375.0
1698411890.8511267,13376.0
1698411890.8715508,13371.0
1698411890.891975,13372.0
1698411890.9123988,13369.0
1698411890.932823,13365.0
1698411890.953247,13362.0
1698411890.9736712,13360.0
1698411890.994095,13357.0
1698411891.014519,13355.0
1698411891.034943,13348.0
1698411891.0553672,13350.0
1698411891.0757914,13347.0
1698411891.096215,13349.0
1698411891.1166394,13349.0
1698411891.1370637,13351.0
1698411891.1574876,13353.0
1698411891.1779115,13357.0
1698411891.1983356,13361.0
1698411891.2187598,13370.0
1698411891.2391837,13377.0
1698411891.2596076,13379.0
1698411891.2800314,13388.0
1698411891.3004558,13387.0
1698411891.32088,13397.0
1698411891.341304,13407.0
1698411891.361728,13422.0
1698411891.382152,13430.0
1698411891.4025762,13445.0
1698411891.4230003,13458.0
1698411891.4434242,13466.0
1698411891.4638484,13476.0
1698411891.4842725,13483.0
1698411891.5046964,13493.0
1698411891.5251203,13493.0
1698411891.5455444,13501.0
1698411891.5659685,13510.0
1698411891.5863926,13511.0
1698411891.606817,13517.0
1698411891.6272407,13517.0
1698411891.6476648,13523.0
1698411891.668089,13521.0
1698411891.688513,13525.0
1698411891.708937,13530.0
1698411891.729361,13531.0
1698411891.7497852,13542.0
1698411891.770209,13543.0
1698411891.790633,13548.0
1698411891.811057,13554.0
1698411891.8314812,13557.0
1698411891.8519053,13556.0
1698411891.872329,13558.0
1698411891.8927534,13562.0
1698411891.9131775,13567.0
1698411891.9336016,13570.0
1698411891.9540257,13571.0
1698411891.9744496,13575.0
1698411891.9948738,13576.0
1698411892.0152977,13576.0
1698411892.0357218,13583.0
1698411892.0561457,13581.0
1698411892.0765698,13578.0
1698411892.096994,13571.0
1698411892.117418,13571.0
1698411892.137842,13564.0
1698411892.158266,13556.0
1698411892.1786902,13554.0
1698411892.1991146,13555.0
1698411892.2195382,13554.0
1698411892.2399623,13553.0
1698411892.2603865,13550.0
1698411892.2808104,13546.0
1698411892.3012345,13549.0
1698411892.3216584,13547.0
1698411892.3420825,13543.0
1698411892.3625066,13545.0
1698411892.382931,13541.0
1698411892.4033546,13532.0
1698411892.4237788,13531.0
1698411892.444203,13528.0
1698411892.464627,13524.0
1698411892.485051,13521.0
1698411892.505475,13521.0
1698411892.5258992,13522.0
1698411892.546323,13524.0
1698411892.5667472,13526.0
1698411892.587171,13525.0
1698411892.6075952,13520.0
1698411892.6280193,13522.0
1698411892.6484435,13516.0
1698411892.6688673,13520.0
1698411892.6892915,13515.0
1698411892.7097156,13516.0
1698411892.7301397,13512.0
1698411892.7505636,13510.0
1698411892.7709877,13509.0
1698411892.7914116,13506.0
1698411892.8118358,13507.0
1698411892.8322597,13505.0
1698411892.8526838,13502.0
1698411892.873108,13500.0
1698411892.893532,13494.0
1698411892.9139562,13498.0
1698411892.9343798,13492.0
1698411892.9548042,13488.0
1698411892.9752285,13487.0
1698411892.9956524,13483.0
1698411893.0160763,13481.0
1698411893.0365005,13478.0
1698411893.0569243,13473.0
1698411893.0773485,13472.0
1698411893.0977724,13470.0
1698411893.1181962,13469.0
1698411893.1386206,13457.0
1698411893.159045,13455.0
1698411893.1794686,13454.0
1698411893.1998928,13449.0
1698411893.220317,13447.0
1698411893.240741,13447.0
1698411893.2611651,13446.0
1698411893.281589,13441.0
1698411893.3020132,13432.0
1698411893.322437,13433.0
1698411893.3428612,13427.0
1698411893.363285,13427.0
1698411893.3837092,13424.0
1698411893.4041333,13421.0
1698411893.4245574,13420.0
1698411893.4449813,13418.0
1698411893.4654055,13415.0
1698411893.4858296,13414.0
1698411893.5062537,13411.0
1698411893.5266776,13405.0
1698411893.5471017,13409.0
1698411893.5675259,13405.0
1698411893.5879498,13406.0
1698411893.6083739,13403.0
1698411893.628798,13403.0
1698411893.649222,13399.0
1698411893.669646,13394.0
1698411893.6900702,13400.0
1698411893.7104938,13397.0
1698411893.7309182,13394.0
1698411893.7513423,13389.0
1698411893.7717664,13396.0
1698411893.7921903,13389.0
1698411893.8126144,13386.0
1698411893.8330383,13382.0
1698411893.8534625,13375.0
1698411893.8738866,13378.0
1698411893.8943102,13373.0
1698411893.9147346,13372.0
1698411893.9351587,13367.0
1698411893.9555829,13362.0
1698411893.9760067,13365.0
1698411893.9964309,13363.0
1698411894.016855,13359.0
1698411894.0372791,13361.0
1698411894.057703,13361.0
1698411894.0781271,13358.0
1698411894.098551,13355.0
1698411894.1189752,13356.0
1698411894.139399,13360.0
1698411894.1598232,13358.0
1698411894.1802473,13357.0
1698411894.2006714,13357.0
1698411894.2210958,13357.0
1698411894.2415195,13354.0
1698411894.2619436,13356.0
1698411894.2823677,13362.0
1698411894.3027916,13357.0
1698411894.3232157,13358.0
1698411894.3436399,13359.0
1698411894.3640637,13358.0
1698411894.3844879,13364.0
1698411894.404912,13364.0
1698411894.425336,13368.0
1698411894.44576,13365.0
1698411894.4661841,13366.0
1698411894.4866083,13367.0
1698411894.5070322,13369.0
1698411894.5274563,13366.0
1698411894.5478804,13365.0
1698411894.5683045,13371.0
1698411894.5887284,13371.0
1698411894.6091523,13370.0
1698411894.6295764,13371.0
1698411894.6500006,13372.0
1698411894.6704245,13372.0
1698411894.6908486,13372.0
1698411894.7112727,13370.0
1698411894.7316968,13367.0
1698411894.7521207,13369.0
1698411894.7725449,13367.0
1698411894.792969,13362.0
1698411894.813393,13365.0
1698411894.8338172,13366.0
1698411894.8542411,13361.0
1698411894.874665,13365.0
1698411894.8950891,13363.0
1698411894.9155133,13360.0
1698411894.9359372,13364.0
1698411894.956361,13363.0
1698411894.9767854,13367.0
1698411894.9972098,13366.0
1698411895.0176334,13363.0
1698411895.0380576,13362.0
1698411895.0584817,13365.0
1698411895.0789058,13366.0
1698411895.09933,13364.0
1698411895.1197538,13369.0
1698411895.1401775,13364.0
1698411895.1606019,13371.0
1698411895.181026,13368.0
1698411895.2014499,13366.0
1698411895.221874,13370.0
1698411895.2422981,13366.0
1698411895.2627223,13369.0
1698411895.2831461,13359.0
1698411895.3035703,13363.0
1698411895.3239944,13361.0
1698411895.3444185,13361.0
1698411895.3648422,13359.0
1698411895.3852663,13359.0
1698411895.4056904,13353.0
1698411895.4261146,13349.0
1698411895.4465387,13347.0
1698411895.4669626,13345.0
1698411895.4873867,13344.0
1698411895.5078108,13344.0
1698411895.528235,13348.0
1698411895.5486588,13346.0
1698411895.569083,13343.0
1698411895.589507,13345.0
1698411895.6099312,13344.0
1698411895.6303551,13342.0
1698411895.650779,13343.0
1698411895.6712031,13347.0
1698411895.6916273,13350.0
1698411895.7120512,13353.0
1698411895.732475,13350.0
1698411895.7528994,13350.0
1698411895.7733235,13349.0
1698411895.7937477,13349.0
1698411895.8141716,13351.0
1698411895.8345957,13353.0
1698411895.8550198,13349.0
1698411895.875444,13347.0
1698411895.8958678,13351.0
1698411895.9162915,13349.0
1698411895.9367158,13353.0
1698411895.95714,13350.0
1698411895.9775639,13353.0
1698411895.997988,13357.0
1698411896.018412,13358.0
1698411896.0388362,13360.0
1698411896.0592606,13361.0
1698411896.0796843,13370.0
1698411896.1001084,13371.0
1698411896.1205325,13378.0
1698411896.1409564,13381.0
1698411896.1613803,13386.0
1698411896.1818044,13393.0
1698411896.2022285,13394.0
1698411896.2226527,13401.0
1698411896.2430768,13413.0
1698411896.2635007,13420.0
1698411896.2839248,13428.0
1698411896.304349,13429.0
1698411896.3247728,13435.0
1698411896.345197,13444.0
1698411896.365621,13449.0
1698411896.3860452,13457.0
1698411896.4064693,13457.0
1698411896.426893,13461.0
1698411896.4473171,13463.0
1698411896.4677413,13463.0
1698411896.4881654,13458.0
1698411896.5085893,13450.0
1698411896.5290134,13450.0
1698411896.5494375,13445.0
1698411896.5698617,13441.0
1698411896.5902855,13441.0
1698411896.6107097,13436.0
1698411896.6311338,13436.0
1698411896.6515582,13434.0
1698411896.671982,13432.0
1698411896.6924057,13433.0
1698411896.7128298,13433.0
1698411896.733254,13437.0
1698411896.753678,13436.0
1698411896.774102,13434.0
1698411896.7945259,13436.0
1698411896.8149502,13436.0
1698411896.8353746,13438.0
1698411896.8557982,13436.0
1698411896.8762224,13433.0
1698411896.8966465,13433.0
1698411896.9170706,13434.0
1698411896.9374945,13436.0
1698411896.9579184,13441.0
1698411896.9783423,13438.0
1698411896.9987667,13436.0
1698411897.019191,13438.0
1698411897.0396147,13440.0
1698411897.0600388,13443.0
1698411897.080463,13440.0
1698411897.100887,13440.0
1698411897.121311,13440.0
1698411897.141735,13440.0
1698411897.1621592,13444.0
1698411897.1825833,13445.0
1698411897.203007,13444.0
1698411897.223431,13446.0
1698411897.2438552,13444.0
1698411897.2642794,13440.0
1698411897.2847033,13443.0
1698411897.3051274,13439.0
1698411897.3255515,13439.0
1698411897.3459756,13437.0
1698411897.3663998,13437.0
1698411897.3868234,13435.0
1698411897.4072478,13435.0
1698411897.4276721,13435.0
1698411897.448096,13438.0
1698411897.4685197,13435.0
1698411897.4889438,13431.0
1698411897.509368,13439.0
1698411897.529792,13436.0
1698411897.550216,13437.0
1698411897.5706398,13436.0
1698411897.5910642,13434.0
1698411897.6114883,13440.0
1698411897.6319125,13447.0
1698411897.6523364,13447.0
1698411897.6727605,13446.0
1698411897.6931846,13445.0
1698411897.7136087,13448.0
1698411897.7340324,13445.0
1698411897.7544563,13447.0
1698411897.7748806,13442.0
1698411897.7953048,13444.0
1698411897.8157287,13442.0
1698411897.8361528,13439.0
1698411897.856577,13441.0
1698411897.877001,13444.0
1698411897.897425,13443.0
1698411897.917849,13444.0
1698411897.9382732,13442.0
1698411897.9586973,13444.0
1698411897.9791212,13443.0
1698411897.999545,13443.0
1698411898.0199692,13443.0
1698411898.0403934,13442.0
1698411898.0608175,13447.0
1698411898.0812416,13441.0
1698411898.1016655,13443.0
1698411898.1220896,13445.0
1698411898.1425138,13446.0
1698411898.1629374,13448.0
1698411898.1833618,13443.0
1698411898.203786,13443.0
1698411898.22421,13441.0
1698411898.2446337,13443.0
1698411898.265058,13442.0
1698411898.285482,13437.0
1698411898.305906,13435.0
1698411898.3263302,13435.0
1698411898.346754,13424.0
1698411898.3671782,13429.0
1698411898.3876023,13428.0
1698411898.4080265,13426.0
1698411898.4284503,13425.0
1698411898.4488745,13422.0
1698411898.4692986,13424.0
1698411898.489723,13425.0
1698411898.5101464,13427.0
1698411898.5305705,13428.0
1698411898.5509946,13426.0
1698411898.5714188,13427.0
1698411898.591843,13432.0
1698411898.6122668,13430.0
1698411898.632691,13431.0
1698411898.653115,13428.0
1698411898.6735392,13428.0
1698411898.693963,13422.0
1698411898.7143872,13425.0
1698411898.7348113,13419.0
1698411898.7552352,13425.0
1698411898.775659,13425.0
1698411898.7960832,13426.0
1698411898.816507,13421.0
1698411898.8369315,13423.0
1698411898.8573556,13430.0
1698411898.8777795,13426.0
1698411898.8982036,13430.0
1698411898.9186277,13424.0
1698411898.9390519,13424.0
1698411898.9594758,13422.0
1698411898.9799,13422.0
1698411899.000324,13427.0
1698411899.020748,13418.0
1698411899.041172,13415.0
1698411899.061596,13416.0
1698411899.08202,13415.0
1698411899.1024442,13413.0
1698411899.122868,13417.0
1698411899.1432922,13411.0
1698411899.1637163,13405.0
1698411899.1841404,13407.0
1698411899.2045646,13403.0
1698411899.2249882,13408.0
1698411899.2454126,13403.0
1698411899.265837,13405.0
1698411899.2862606,13403.0
1698411899.3066845,13404.0
1698411899.3271086,13404.0
1698411899.3475327,13406.0
1698411899.3679569,13403.0
1698411899.3883808,13405.0
1698411899.408805,13410.0
1698411899.429229,13407.0
1698411899.4496531,13410.0
1698411899.470077,13411.0
1698411899.4905012,13413.0
1698411899.5109253,13413.0
1698411899.5313492,13409.0
1698411899.5517733,13415.0
1698411899.5721972,13414.0
1698411899.592621,13418.0
1698411899.6130455,13410.0
1698411899.6334696,13410.0
1698411899.6538935,13414.0
1698411899.6743176,13410.0
1698411899.6947417,13412.0
1698411899.7151659,13407.0
1698411899.7355897,13408.0
1698411899.7560139,13407.0
1698411899.776438,13412.0
1698411899.796862,13408.0
1698411899.8172858,13412.0
1698411899.83771,13411.0
1698411899.858134,13418.0
1698411899.8785582,13417.0
1698411899.8989823,13416.0
1698411899.9194062,13417.0
1698411899.9398303,13414.0
1698411899.9602544,13417.0
1698411899.9806786,13415.0
1698411900.0011022,13413.0
1698411900.0215266,13409.0
1698411900.0419507,13410.0
1698411900.0623746,13409.0
1698411900.0827985,13402.0
1698411900.1032228,13404.0
1698411900.1236467,13401.0
1698411900.1440709,13403.0
1698411900.164495,13395.0
1698411900.1849189,13402.0
1698411900.205343,13403.0
1698411900.2257671,13398.0
1698411900.2461913,13409.0
1698411900.2666152,13407.0
1698411900.2870393,13414.0
1698411900.3074634,13413.0
1698411900.3278873,13418.0
1698411900.3483112,13420.0
1698411900.3687353,13424.0
1698411900.3891594,13423.0
1698411900.4095836,13424.0
1698411900.4300075,13421.0
1698411900.4504316,13423.0
1698411900.4708557,13423.0
1698411900.4912798,13425.0
1698411900.5117042,13424.0
1698411900.5321279,13429.0
1698411900.552552,13423.0
1698411900.5729759,13426.0
1698411900.5934,13423.0
1698411900.613824,13426.0
1698411900.634248,13422.0
1698411900.6546721,13420.0
1698411900.6750963,13424.0
1698411900.6955204,13422.0
1698411900.7159443,13421.0
1698411900.7363684,13421.0
1698411900.7567925,13421.0
1698411900.7772164,13421.0
1698411900.7976406,13416.0
1698411900.8180647,13421.0
1698411900.8384883,13424.0
1698411900.8589127,13418.0
1698411900.8793368,13419.0
1698411900.8997607,13417.0
1698411900.9201849,13421.0
1698411900.940609,13415.0
1698411900.9610329,13412.0
1698411900.981457,13412.0
1698411901.0018811,13410.0
1698411901.0223053,13404.0
1698411901.0427291,13405.0
1698411901.0631533,13403.0
1698411901.0835774,13398.0
1698411901.1040013,13392.0
1698411901.1244254,13399.0
1698411901.1448493,13398.0
1698411901.1652734,13389.0
1698411901.1856976,13387.0
1698411901.2061217,13386.0
1698411901.2265456,13387.0
1698411901.2469695,13389.0
1698411901.2673938,13385.0
1698411901.2878182,13387.0
1698411901.3082418,13383.0
1698411901.328666,13384.0
1698411901.3490899,13386.0
1698411901.369514,13383.0
1698411901.3899379,13387.0
1698411901.410362,13387.0
1698411901.430786,13390.0
1698411901.4512103,13394.0
1698411901.4716346,13400.0
1698411901.4920583,13398.0
1698411901.5124824,13394.0
1698411901.5329065,13391.0
1698411901.5533307,13389.0
1698411901.5737545,13387.0
1698411901.5941787,13393.0
1698411901.6146023,13394.0
1698411901.6350267,13391.0
1698411901.6554506,13386.0
1698411901.6758747,13395.0
1698411901.6962988,13395.0
1698411901.716723,13400.0
1698411901.7371469,13394.0
1698411901.757571,13397.0
1698411901.777995,13397.0
1698411901.7984192,13394.0
1698411901.8188434,13395.0
1698411901.839267,13392.0
1698411901.8596914,13390.0
1698411901.8801153,13385.0
1698411901.9005394,13378.0
1698411901.9209633,13379.0
1698411901.9413877,13375.0
1698411901.9618115,13372.0
1698411901.9822357,13369.0
1698411902.0026596,13374.0
1698411902.0230834,13370.0
1698411902.0435078,13370.0
1698411902.063932,13369.0
1698411902.084356,13366.0
1698411902.10478,13366.0
1698411902.125204,13362.0
1698411902.145628,13364.0
1698411902.166052,13357.0
1698411902.186476,13364.0
1698411902.2069,13363.0
1698411902.2273242,13366.0
1698411902.2477484,13372.0
1698411902.2681723,13371.0
1698411902.2885964,13376.0
1698411902.3090205,13376.0
1698411902.3294446,13376.0
1698411902.349869,13374.0
1698411902.3702927,13374.0
1698411902.3907166,13376.0
1698411902.4111407,13374.0
1698411902.4315648,13377.0
1698411902.4519887,13375.0
1698411902.4724128,13377.0
1698411902.492837,13370.0
1698411902.513261,13370.0
1698411902.533685,13371.0
1698411902.554109,13371.0
1698411902.5745332,13364.0
1698411902.5949574,13367.0
1698411902.615381,13368.0
1698411902.6358054,13361.0
1698411902.6562293,13364.0
1698411902.6766534,13367.0
1698411902.6970773,13368.0
1698411902.7175016,13365.0
1698411902.7379255,13365.0
1698411902.7583497,13366.0
1698411902.7787738,13366.0
1698411902.7991977,13368.0
1698411902.8196218,13366.0
1698411902.840046,13365.0
1698411902.86047,13365.0
1698411902.880894,13359.0
1698411902.901318,13358.0
1698411902.921742,13351.0
1698411902.942166,13349.0
1698411902.96259,13347.0
1698411902.983014,13346.0
1698411903.0034382,13346.0
1698411903.0238624,13347.0
1698411903.0442865,13347.0
1698411903.0647104,13346.0
1698411903.0851345,13345.0
1698411903.1055586,13343.0
1698411903.125983,13337.0
1698411903.1464067,13336.0
1698411903.1668305,13338.0
1698411903.1872547,13333.0
1698411903.2076788,13332.0
1698411903.2281027,13330.0
1698411903.2485268,13336.0
1698411903.268951,13335.0
1698411903.289375,13336.0
1698411903.309799,13343.0
1698411903.330223,13345.0
1698411903.3506472,13344.0
1698411903.3710713,13343.0
1698411903.3914955,13340.0
1698411903.4119194,13340.0
1698411903.4323432,13335.0
1698411903.4527671,13334.0
1698411903.4731915,13333.0
1698411903.4936154,13331.0
1698411903.5140395,13331.0
1698411903.5344636,13335.0
1698411903.5548878,13328.0
1698411903.5753117,13329.0
1698411903.5957358,13330.0
1698411903.61616,13330.0
1698411903.636584,13330.0
1698411903.6570082,13331.0
1698411903.6774318,13330.0
1698411903.697856,13332.0
1698411903.71828,13337.0
1698411903.7387042,13336.0
1698411903.759128,13332.0
1698411903.7795522,13338.0
1698411903.7999763,13334.0
1698411903.8204005,13337.0
1698411903.8408244,13330.0
1698411903.8612483,13333.0
1698411903.8816726,13332.0
1698411903.9020967,13327.0
1698411903.9225206,13323.0
1698411903.9429445,13329.0
1698411903.963369,13326.0
1698411903.9837928,13325.0
1698411904.004217,13330.0
1698411904.0246408,13323.0
1698411904.045065,13329.0
1698411904.065489,13335.0
1698411904.0859132,13328.0
1698411904.106337,13323.0
1698411904.1267612,13322.0
1698411904.1471853,13325.0
1698411904.1676095,13319.0
1698411904.1880333,13313.0
1698411904.2084572,13317.0
1698411904.2288811,13322.0
1698411904.2493055,13319.0
1698411904.2697294,13324.0
1698411904.2901535,13329.0
1698411904.3105776,13331.0
1698411904.3310018,13342.0
1698411904.351426,13350.0
1698411904.37185,13347.0
1698411904.392274,13345.0
1698411904.412698,13352.0
1698411904.4331222,13351.0
1698411904.4535458,13345.0
1698411904.47397,13342.0
1698411904.494394,13346.0
1698411904.5148182,13343.0
1698411904.535242,13341.0
1698411904.5556664,13343.0
1698411904.5760903,13344.0
1698411904.5965145,13346.0
1698411904.6169386,13342.0
1698411904.6373622,13344.0
1698411904.6577866,13343.0
1698411904.6782107,13343.0
1698411904.6986349,13345.0
1698411904.7190585,13340.0
1698411904.7394829,13342.0
1698411904.7599068,13339.0
1698411904.780331,13338.0
1698411904.8007548,13342.0
1698411904.821179,13339.0
1698411904.841603,13342.0
1698411904.8620272,13342.0
1698411904.882451,13343.0
1698411904.9028752,13343.0
1698411904.9232993,13339.0
1698411904.9437234,13343.0
1698411904.9641478,13339.0
1698411904.9845712,13351.0
1698411905.0049953,13352.0
1698411905.0254195,13359.0
1698411905.0458436,13366.0
1698411905.0662675,13370.0
1698411905.0866916,13370.0
1698411905.1071155,13367.0
1698411905.1275399,13366.0
1698411905.147964,13364.0
1698411905.168388,13362.0
1698411905.188812,13352.0
1698411905.2092361,13356.0
1698411905.2296603,13357.0
1698411905.250084,13358.0
1698411905.270508,13361.0
1698411905.290932,13357.0
1698411905.3113563,13356.0
1698411905.3317804,13354.0
1698411905.3522043,13353.0
1698411905.3726285,13359.0
1698411905.3930526,13355.0
1698411905.4134765,13351.0
1698411905.4339006,13352.0
1698411905.4543247,13354.0
1698411905.4747488,13354.0
1698411905.4951725,13351.0
1698411905.5155966,13353.0
1698411905.5360208,13356.0
1698411905.556445,13356.0
1698411905.576869,13359.0
1698411905.597293,13359.0
1698411905.617717,13358.0
1698411905.6381412,13362.0
1698411905.6585653,13366.0
1698411905.6789892,13364.0
1698411905.699413,13367.0
1698411905.7198374,13362.0
1698411905.7402618,13360.0
1698411905.7606852,13358.0
1698411905.7811093,13360.0
1698411905.8015335,13355.0
1698411905.8219576,13354.0
1698411905.8423815,13349.0
1698411905.8628056,13350.0
1698411905.8832295,13345.0
1698411905.9036539,13340.0
1698411905.924078,13340.0
1698411905.9445019,13341.0
1698411905.964926,13336.0
1698411905.9853501,13338.0
1698411906.0057743,13337.0
1698411906.026198,13337.0
1698411906.046622,13335.0
1698411906.067046,13342.0
1698411906.0874703,13342.0
1698411906.1078942,13342.0
1698411906.1283183,13347.0
1698411906.1487424,13350.0
1698411906.1691666,13356.0
1698411906.1895907,13363.0
1698411906.2100146,13362.0
1698411906.2304387,13363.0
1698411906.2508628,13367.0
1698411906.2712867,13369.0
1698411906.2917106,13378.0
1698411906.3121347,13374.0
1698411906.3325589,13371.0
1698411906.352983,13366.0
1698411906.373407,13368.0
1698411906.393831,13365.0
1698411906.4142551,13371.0
1698411906.4346793,13368.0
1698411906.4551032,13370.0
1698411906.475527,13371.0
1698411906.4959514,13368.0
1698411906.5163755,13370.0
1698411906.5367994,13365.0
1698411906.5572233,13362.0
1698411906.5776477,13360.0
1698411906.5980716,13353.0
1698411906.6184957,13350.0
1698411906.6389196,13351.0
1698411906.6593437,13346.0
1698411906.6797678,13341.0
1698411906.700192,13343.0
1698411906.7206159,13339.0
1698411906.74104,13337.0
1698411906.761464,13335.0
1698411906.7818882,13332.0
1698411906.802312,13330.0
1698411906.822736,13330.0
1698411906.8431602,13331.0
1698411906.8635843,13332.0
1698411906.8840084,13333.0
1698411906.9044323,13334.0
1698411906.9248564,13332.0
1698411906.9452806,13336.0
1698411906.9657047,13335.0
1698411906.9861288,13334.0
1698411907.0065527,13333.0
1698411907.0269768,13326.0
1698411907.047401,13333.0
1698411907.0678246,13336.0
1698411907.0882487,13335.0
1698411907.1086729,13333.0
1698411907.129097,13336.0
1698411907.149521,13335.0
1698411907.169945,13332.0
1698411907.1903691,13332.0
1698411907.2107933,13333.0
1698411907.2312174,13326.0
1698411907.2516413,13331.0
1698411907.2720654,13330.0
1698411907.2924895,13330.0
1698411907.3129132,13327.0
1698411907.3333373,13331.0
1698411907.3537617,13335.0
1698411907.3741856,13336.0
1698411907.3946097,13333.0
1698411907.4150336,13333.0
1698411907.4354577,13331.0
1698411907.4558818,13332.0
1698411907.476306,13332.0
1698411907.49673,13328.0
1698411907.517154,13333.0
1698411907.5375779,13330.0
1698411907.5580022,13326.0
1698411907.5784261,13324.0
1698411907.59885,13319.0
1698411907.6192741,13319.0
1698411907.6396983,13315.0
1698411907.6601224,13309.0
1698411907.6805463,13314.0
1698411907.7009704,13312.0
1698411907.7213943,13323.0
1698411907.7418187,13328.0
1698411907.762243,13332.0
1698411907.7826667,13332.0
1698411907.8030908,13331.0
1698411907.823515,13333.0
1698411907.8439388,13330.0
1698411907.8643627,13319.0
1698411907.8847868,13322.0
1698411907.905211,13320.0
1698411907.925635,13316.0
1698411907.946059,13320.0
1698411907.966483,13325.0
1698411907.9869072,13330.0
1698411908.0073314,13337.0
1698411908.0277553,13341.0
1698411908.0481794,13343.0
1698411908.0686035,13344.0
1698411908.0890272,13346.0
1698411908.1094515,13344.0
1698411908.1298754,13344.0
1698411908.1502995,13340.0
1698411908.1707237,13336.0
1698411908.1911478,13335.0
1698411908.2115717,13336.0
1698411908.2319958,13340.0
1698411908.25242,13335.0
1698411908.272844,13337.0
1698411908.293268,13337.0
1698411908.3136919,13342.0
1698411908.3341162,13333.0
1698411908.35454,13332.0
1698411908.374964,13334.0
1698411908.3953881,13329.0
1698411908.4158125,13328.0
1698411908.4362364,13327.0
1698411908.4566605,13322.0
1698411908.4770844,13323.0
1698411908.4975083,13321.0
1698411908.5179327,13315.0
1698411908.5383568,13312.0
1698411908.5587807,13310.0
1698411908.5792048,13307.0
1698411908.599629,13304.0
1698411908.6200528,13302.0
1698411908.6404767,13306.0
1698411908.6609008,13305.0
1698411908.681325,13309.0
1698411908.701749,13310.0
1698411908.7221732,13314.0
1698411908.742597,13308.0
1698411908.7630212,13307.0
1698411908.7834454,13301.0
1698411908.8038695,13299.0
1698411908.8242936,13293.0
1698411908.8447175,13289.0
1698411908.8651414,13297.0
1698411908.8855655,13298.0
1698411908.9059894,13298.0
1698411908.9264135,13298.0
1698411908.9468377,13298.0
1698411908.9672618,13300.0
1698411908.9876857,13300.0
1698411909.00811,13300.0
1698411909.028534,13299.0
1698411909.048958,13300.0
1698411909.0693822,13301.0
1698411909.089806,13304.0
1698411909.1102302,13306.0
1698411909.130654,13307.0
1698411909.151078,13305.0
1698411909.171502,13312.0
1698411909.1919265,13314.0
1698411909.2123504,13311.0
1698411909.2327745,13317.0
1698411909.2531984,13321.0
1698411909.2736225,13323.0
1698411909.2940466,13323.0
1698411909.3144708,13320.0
1698411909.3348947,13312.0
1698411909.3553188,13317.0
1698411909.375743,13311.0
1698411909.3961668,13305.0
1698411909.416591,13300.0
1698411909.4370148,13301.0
1698411909.457439,13298.0
1698411909.477863,13294.0
1698411909.4982872,13288.0
1698411909.518711,13288.0
1698411909.5391352,13284.0
1698411909.559559,13287.0
1698411909.5799835,13284.0
1698411909.6004076,13290.0
1698411909.6208315,13294.0
1698411909.6412554,13302.0
1698411909.6616795,13312.0
1698411909.6821036,13326.0
1698411909.7025275,13334.0
1698411909.7229517,13338.0
1698411909.7433755,13340.0
1698411909.7638,13342.0
1698411909.784224,13340.0
1698411909.804648,13347.0
1698411909.825072,13348.0
1698411909.8454962,13349.0
1698411909.86592,13353.0
1698411909.8863442,13358.0
1698411909.906768,13354.0
1698411909.927192,13354.0
1698411909.947616,13351.0
1698411909.9680402,13347.0
1698411909.9884644,13345.0
1698411910.0088885,13351.0
1698411910.0293126,13344.0
1698411910.0497365,13347.0
1698411910.0701606,13345.0
1698411910.0905848,13347.0
1698411910.111009,13347.0
1698411910.1314328,13344.0
1698411910.151857,13346.0
1698411910.1722808,13344.0
1698411910.192705,13345.0
1698411910.2131288,13344.0
1698411910.233553,13345.0
1698411910.253977,13340.0
1698411910.2744012,13342.0
1698411910.294825,13337.0
1698411910.3152492,13338.0
1698411910.335673,13332.0
1698411910.3560975,13327.0
1698411910.3765216,13325.0
1698411910.3969455,13320.0
1698411910.4173696,13318.0
1698411910.4377937,13314.0
1698411910.4582176,13311.0
1698411910.4786415,13305.0
1698411910.4990656,13311.0
1698411910.5194895,13307.0
1698411910.539914,13307.0
1698411910.5603378,13306.0
1698411910.580762,13300.0
1698411910.601186,13299.0
1698411910.6216102,13303.0
1698411910.6420343,13299.0
1698411910.6624584,13297.0
1698411910.682882,13298.0
1698411910.7033062,13295.0
1698411910.7237303,13296.0
1698411910.7441542,13297.0
1698411910.7645783,13294.0
1698411910.7850025,13298.0
1698411910.8054266,13296.0
1698411910.8258505,13298.0
1698411910.8462749,13294.0
1698411910.8666987,13300.0
1698411910.8871229,13298.0
1698411910.9075468,13295.0
1698411910.927971,13299.0
1698411910.9483948,13295.0
1698411910.968819,13292.0
1698411910.989243,13291.0
1698411911.009667,13286.0
1698411911.030091,13279.0
1698411911.0505152,13279.0
1698411911.0709393,13278.0
1698411911.0913632,13279.0
1698411911.1117873,13280.0
1698411911.1322114,13281.0
1698411911.1526356,13281.0
1698411911.1730595,13283.0
1698411911.1934836,13279.0
1698411911.2139077,13284.0
1698411911.2343316,13283.0
1698411911.2547555,13279.0
1698411911.2751796,13282.0
1698411911.2956038,13279.0
1698411911.3160279,13274.0
1698411911.336452,13274.0
1698411911.356876,13267.0
1698411911.3773,13269.0
1698411911.3977242,13271.0
1698411911.4181483,13267.0
1698411911.4385724,13271.0
1698411911.458996,13252.0
1698411911.4794202,13269.0
1698411911.4998443,13268.0
1698411911.5202682,13266.0
1698411911.5406923,13261.0
1698411911.5611165,13251.0
1698411911.5815403,13264.0
1698411911.6019647,13269.0
1698411911.6223888,13264.0
1698411911.6428127,13260.0
1698411911.6632369,13259.0
1698411911.683661,13268.0
1698411911.7040849,13267.0
1698411911.7245088,13265.0
1698411911.744933,13260.0
1698411911.765357,13261.0
1698411911.785781,13259.0
1698411911.806205,13259.0
1698411911.8266292,13262.0
1698411911.8470533,13261.0
1698411911.8674772,13264.0
1698411911.8879013,13267.0
1698411911.9083254,13269.0
1698411911.9287496,13268.0
1698411911.9491737,13275.0
1698411911.9695976,13264.0
1698411911.9900215,13266.0
1698411912.0104456,13257.0
1698411912.0308697,13253.0
1698411912.0512936,13262.0
1698411912.0717177,13261.0
1698411912.0921419,13259.0
1698411912.112566,13257.0
1698411912.13299,13258.0
1698411912.153414,13258.0
1698411912.173838,13259.0
1698411912.1942623,13260.0
1698411912.2146864,13260.0
1698411912.23511,13265.0
1698411912.2555342,13258.0
1698411912.2759585,13254.0
1698411912.2963824,13248.0
1698411912.3168063,13251.0
1698411912.3372304,13246.0
1698411912.3576543,13248.0
1698411912.3780787,13254.0
1698411912.3985026,13253.0
1698411912.4189267,13252.0
1698411912.4393508,13250.0
1698411912.459775,13250.0
1698411912.4801989,13250.0
1698411912.5006227,13249.0
1698411912.5210469,13246.0
1698411912.541471,13246.0
1698411912.5618951,13243.0
1698411912.582319,13238.0
1698411912.6027431,13240.0
1698411912.6231673,13235.0
1698411912.6435914,13232.0
1698411912.6640153,13230.0
1698411912.6844397,13234.0
1698411912.7048635,13238.0
1698411912.7252877,13240.0
1698411912.7457116,13238.0
1698411912.7661355,13237.0
1698411912.7865596,13242.0
1698411912.8069837,13238.0
1698411912.8274076,13237.0
1698411912.8478317,13232.0
1698411912.868256,13235.0
1698411912.88868,13237.0
1698411912.909104,13231.0
1698411912.929528,13229.0
1698411912.949952,13233.0
1698411912.9703763,13230.0
1698411912.9908004,13228.0
1698411913.011224,13229.0
1698411913.0316482,13227.0
1698411913.0520725,13229.0
1698411913.0724964,13231.0
1698411913.0929203,13228.0
1698411913.1133444,13232.0
1698411913.1337686,13234.0
1698411913.1541927,13231.0
1698411913.1746168,13232.0
1698411913.1950407,13238.0
1698411913.2154648,13236.0
1698411913.235889,13241.0
1698411913.256313,13248.0
1698411913.2767367,13249.0
1698411913.2971609,13252.0
1698411913.317585,13256.0
1698411913.338009,13257.0
1698411913.358433,13258.0
1698411913.3788571,13254.0
1698411913.3992813,13258.0
1698411913.4197052,13260.0
1698411913.4401293,13263.0
1698411913.4605536,13261.0
1698411913.4809775,13268.0
1698411913.5014017,13269.0
1698411913.5218258,13264.0
1698411913.5422494,13268.0
1698411913.5626736,13272.0
1698411913.5830977,13270.0
1698411913.6035216,13274.0
1698411913.6239457,13279.0
1698411913.64437,13289.0
1698411913.664794,13287.0
1698411913.685218,13295.0
1698411913.705642,13288.0
1698411913.726066,13292.0
1698411913.7464902,13291.0
1698411913.7669144,13289.0
1698411913.7873385,13290.0
1698411913.8077621,13296.0
1698411913.8281863,13300.0
1698411913.8486104,13301.0
1698411913.8690345,13303.0
1698411913.8894584,13300.0
1698411913.9098825,13311.0
1698411913.9303067,13310.0
1698411913.9507308,13312.0
1698411913.9711547,13315.0
1698411913.9915788,13315.0
1698411914.012003,13318.0
1698411914.032427,13316.0
1698411914.0528507,13315.0
1698411914.0732749,13320.0
1698411914.093699,13313.0
1698411914.114123,13312.0
1698411914.1345472,13313.0
1698411914.1549711,13304.0
1698411914.1753953,13302.0
1698411914.1958191,13295.0
1698411914.2162435,13297.0
1698411914.2366674,13294.0
1698411914.2570915,13297.0
1698411914.2775156,13292.0
1698411914.2979398,13297.0
1698411914.3183634,13301.0
1698411914.3387876,13299.0
1698411914.3592117,13302.0
1698411914.3796356,13306.0
1698411914.4000597,13311.0
1698411914.4204838,13309.0
1698411914.440908,13308.0
1698411914.461332,13307.0
1698411914.4817562,13308.0
1698411914.50218,13307.0
1698411914.5226042,13308.0
1698411914.5430284,13315.0
1698411914.5634525,13318.0
1698411914.5838761,13316.0
1698411914.6043003,13319.0
1698411914.6247244,13323.0
1698411914.6451485,13320.0
1698411914.6655724,13323.0
1698411914.6859965,13324.0
1698411914.706421,13327.0
1698411914.7268448,13333.0
1698411914.747269,13329.0
1698411914.7676928,13339.0
1698411914.788117,13334.0
1698411914.808541,13337.0
1698411914.828965,13343.0
1698411914.8493888,13336.0
1698411914.869813,13341.0
1698411914.890237,13338.0
1698411914.9106612,13330.0
1698411914.931085,13330.0
1698411914.9515092,13326.0
1698411914.9719331,13327.0
1698411914.9923575,13324.0
1698411915.0127814,13322.0
1698411915.0332055,13319.0
1698411915.0536296,13321.0
1698411915.0740538,13319.0
1698411915.0944777,13316.0
1698411915.1149015,13317.0
1698411915.1353257,13316.0
1698411915.1557498,13315.0
1698411915.176174,13316.0
1698411915.1965978,13310.0
1698411915.217022,13308.0
1698411915.237446,13316.0
1698411915.2578702,13315.0
1698411915.278294,13315.0
1698411915.2987185,13314.0
1698411915.3191423,13314.0
1698411915.3395665,13312.0
1698411915.3599901,13307.0
1698411915.3804142,13307.0
1698411915.4008384,13306.0
1698411915.4212625,13310.0
1698411915.4416864,13306.0
1698411915.4621105,13309.0
1698411915.482535,13312.0
1698411915.5029588,13318.0
1698411915.523383,13324.0
1698411915.5438068,13334.0
1698411915.564231,13347.0
1698411915.584655,13354.0
1698411915.605079,13365.0
1698411915.6255028,13384.0
1698411915.645927,13400.0
1698411915.666351,13419.0
1698411915.6867752,13434.0
1698411915.7071993,13446.0
1698411915.7276232,13462.0
1698411915.7480474,13476.0
1698411915.7684715,13484.0
1698411915.7888956,13487.0
1698411915.8093195,13493.0
1698411915.8297436,13503.0
1698411915.8501675,13514.0
1698411915.8705916,13523.0
1698411915.8910155,13525.0
1698411915.9114397,13535.0
1698411915.9318638,13549.0
1698411915.952288,13552.0
1698411915.9727118,13561.0
1698411915.993136,13563.0
1698411916.01356,13571.0
1698411916.033984,13577.0
1698411916.0544083,13579.0
1698411916.0748324,13582.0
1698411916.0952563,13586.0
1698411916.1156805,13589.0
1698411916.1361043,13592.0
1698411916.1565282,13591.0
1698411916.1769524,13595.0
1698411916.1973765,13597.0
1698411916.2178004,13596.0
1698411916.2382245,13600.0
1698411916.2586486,13605.0
1698411916.2790728,13604.0
1698411916.299497,13610.0
1698411916.319921,13613.0
1698411916.340345,13610.0
1698411916.360769,13604.0
1698411916.381193,13601.0
1698411916.401617,13592.0
1698411916.422041,13597.0
1698411916.442465,13595.0
1698411916.4628892,13598.0
1698411916.4833133,13601.0
1698411916.5037372,13609.0
1698411916.5241613,13611.0
1698411916.5445855,13621.0
1698411916.5650096,13628.0
1698411916.5854335,13642.0
1698411916.6058576,13657.0
1698411916.6262815,13671.0
1698411916.6467056,13688.0
1698411916.6671298,13699.0
1698411916.6875536,13706.0
1698411916.7079778,13716.0
1698411916.7284021,13719.0
1698411916.748826,13722.0
1698411916.76925,13724.0
1698411916.789674,13728.0
1698411916.810098,13730.0
1698411916.8305223,13730.0
1698411916.8509462,13735.0
1698411916.8713703,13740.0
1698411916.8917944,13750.0
1698411916.9122186,13744.0
1698411916.9326422,13748.0
1698411916.9530663,13748.0
1698411916.9734905,13745.0
1698411916.9939146,13745.0
1698411917.0143387,13751.0
1698411917.0347626,13748.0
1698411917.0551867,13750.0
1698411917.0756109,13756.0
1698411917.096035,13762.0
1698411917.116459,13767.0
1698411917.136883,13768.0
1698411917.1573071,13773.0
1698411917.177731,13778.0
1698411917.198155,13782.0
1698411917.218579,13780.0
1698411917.2390032,13781.0
1698411917.2594273,13788.0
1698411917.2798514,13787.0
1698411917.3002753,13794.0
1698411917.3206997,13800.0
1698411917.3411236,13797.0
1698411917.3615477,13799.0
1698411917.3819716,13800.0
1698411917.4023957,13800.0
1698411917.4228196,13799.0
1698411917.4432437,13800.0
1698411917.4636674,13801.0
1698411917.4840918,13800.0
1698411917.5045161,13798.0
1698411917.52494,13801.0
1698411917.545364,13795.0
1698411917.565788,13793.0
1698411917.5862122,13795.0
1698411917.6066363,13798.0
1698411917.6270604,13789.0
1698411917.6474843,13794.0
1698411917.6679084,13789.0
1698411917.6883326,13795.0
1698411917.7087564,13787.0
1698411917.7291803,13794.0
1698411917.7496045,13790.0
1698411917.7700286,13789.0
1698411917.7904527,13791.0
1698411917.8108766,13790.0
1698411917.8313007,13782.0
1698411917.8517249,13781.0
1698411917.872149,13775.0
1698411917.8925729,13776.0
1698411917.912997,13768.0
1698411917.9334211,13769.0
1698411917.953845,13766.0
1698411917.9742692,13760.0
1698411917.994693,13759.0
1698411918.0151172,13756.0
1698411918.0355413,13758.0
1698411918.0559652,13759.0
1698411918.0763893,13756.0
1698411918.0968137,13754.0
1698411918.1172376,13756.0
1698411918.1376617,13757.0
1698411918.1580856,13753.0
1698411918.1785097,13756.0
1698411918.1989336,13751.0
1698411918.2193577,13758.0
1698411918.2397814,13755.0
1698411918.2602057,13752.0
1698411918.2806299,13754.0
1698411918.301054,13750.0
1698411918.3214781,13752.0
1698411918.341902,13750.0
1698411918.3623261,13754.0
1698411918.3827503,13751.0
1698411918.4031744,13751.0
1698411918.4235983,13751.0
1698411918.4440224,13749.0
1698411918.4644463,13744.0
1698411918.4848704,13745.0
1698411918.5052943,13746.0
1698411918.5257185,13743.0
1698411918.5461426,13738.0
1698411918.566567,13733.0
1698411918.5869908,13736.0
1698411918.6074147,13726.0
1698411918.6278389,13722.0
1698411918.648263,13718.0
1698411918.668687,13719.0
1698411918.689111,13715.0
1698411918.7095351,13720.0
1698411918.729959,13718.0
1698411918.7503831,13715.0
1698411918.770807,13714.0
1698411918.7912312,13713.0
1698411918.8116553,13710.0
1698411918.8320792,13711.0
1698411918.8525033,13706.0
1698411918.8729274,13707.0
1698411918.8933516,13703.0
1698411918.9137757,13699.0
1698411918.9341998,13696.0
1698411918.9546237,13696.0
1698411918.9750476,13689.0
1698411918.9954717,13679.0
1698411919.0158958,13674.0
1698411919.0363197,13674.0
1698411919.0567439,13669.0
1698411919.077168,13664.0
1698411919.097592,13663.0
1698411919.118016,13655.0
1698411919.1384401,13650.0
1698411919.1588645,13646.0
1698411919.1792884,13640.0
1698411919.1997125,13640.0
1698411919.2201364,13630.0
1698411919.2405603,13623.0
1698411919.2609844,13614.0
1698411919.2814085,13604.0
1698411919.3018324,13597.0
1698411919.3222566,13589.0
1698411919.342681,13582.0
1698411919.3631048,13580.0
1698411919.3835287,13575.0
1698411919.4039528,13571.0
1698411919.424377,13566.0
1698411919.444801,13568.0
1698411919.465225,13572.0
1698411919.485649,13589.0
1698411919.506073,13626.0
1698411919.5264971,13703.0
1698411919.5469213,13812.0
1698411919.5673451,13940.0
1698411919.5877693,14109.0
1698411919.6081934,14252.0
1698411919.6286175,14374.0
1698411919.6490414,14492.0
1698411919.6694655,14595.0
1698411919.6898897,14682.0
1698411919.7103138,14750.0
1698411919.7307377,14805.0
1698411919.7511616,14856.0
1698411919.7715857,14889.0
1698411919.7920098,14910.0
1698411919.8124337,14926.0
1698411919.8328578,14926.0
1698411919.853282,14922.0
1698411919.873706,14911.0
1698411919.89413,14893.0
1698411919.914554,14883.0
1698411919.9349785,14862.0
1698411919.9554024,14844.0
1698411919.9758265,14825.0
1698411919.9962504,14807.0
1698411920.0166743,14792.0
1698411920.0370984,14776.0
1698411920.0575225,14763.0
1698411920.0779462,14752.0
1698411920.0983706,14744.0
1698411920.118795,14739.0
1698411920.1392188,14735.0
1698411920.159643,14736.0
1698411920.1800668,14734.0
1698411920.200491,14725.0
1698411920.220915,14709.0
1698411920.2413392,14698.0
1698411920.261763,14681.0
1698411920.282187,14668.0
1698411920.302611,14649.0
1698411920.3230352,14642.0
1698411920.3434591,14619.0
1698411920.3638833,14604.0
1698411920.3843074,14590.0
1698411920.4047315,14575.0
1698411920.4251554,14562.0
1698411920.4455795,14544.0
1698411920.4660037,14531.0
1698411920.4864275,14508.0
1698411920.506852,14500.0
1698411920.5272758,14493.0
1698411920.5476997,14490.0
1698411920.5681238,14484.0
1698411920.5885482,14469.0
1698411920.6089718,14448.0
1698411920.629396,14431.0
1698411920.64982,14413.0
1698411920.670244,14389.0
1698411920.690668,14370.0
1698411920.7110922,14348.0
1698411920.7315164,14329.0
1698411920.7519405,14309.0
1698411920.7723646,14289.0
1698411920.7927883,14269.0
1698411920.8132124,14250.0
1698411920.8336365,14232.0
1698411920.8540604,14222.0
1698411920.8744845,14208.0
1698411920.8949087,14197.0
1698411920.9153328,14183.0
1698411920.935757,14176.0
1698411920.9561808,14164.0
1698411920.976605,14149.0
1698411920.997029,14145.0
1698411921.0174532,14144.0
1698411921.037877,14137.0
1698411921.058301,14123.0
1698411921.078725,14109.0
1698411921.0991492,14104.0
1698411921.1195734,14092.0
1698411921.1399972,14081.0
1698411921.1604214,14054.0
1698411921.1808457,14035.0
1698411921.2012696,14011.0
1698411921.2216935,13993.0
1698411921.2421176,13985.0
1698411921.2625415,13962.0
1698411921.282966,13941.0
1698411921.3033898,13930.0
1698411921.3238137,13920.0
1698411921.3442378,13915.0
1698411921.3646622,13913.0
1698411921.3850858,13920.0
1698411921.40551,13927.0
1698411921.425934,13927.0
1698411921.4463582,13925.0
1698411921.4667823,13918.0
1698411921.4872062,13903.0
1698411921.5076303,13882.0
1698411921.5280545,13886.0
1698411921.5484786,13885.0
1698411921.5689023,13911.0
1698411921.5893264,13937.0
1698411921.6097505,13969.0
1698411921.6301746,14011.0
1698411921.6505985,14042.0
1698411921.6710227,14081.0
1698411921.6914468,14116.0
1698411921.711871,14141.0
1698411921.732295,14156.0
1698411921.752719,14162.0
1698411921.773143,14175.0
1698411921.7935672,14183.0
1698411921.8139913,14188.0
1698411921.834415,14192.0
1698411921.854839,14202.0
1698411921.8752632,14212.0
1698411921.8956873,14221.0
1698411921.916111,14230.0
1698411921.9365354,14243.0
1698411921.9569597,14256.0
1698411921.9773836,14271.0
1698411921.9978075,14281.0
1698411922.0182316,14288.0
1698411922.0386558,14294.0
1698411922.05908,14300.0
1698411922.079504,14308.0
1698411922.0999274,14319.0
1698411922.1203518,14331.0
1698411922.140776,14344.0
1698411922.1612,14366.0
1698411922.181624,14376.0
1698411922.202048,14388.0
1698411922.2224722,14395.0
1698411922.2428963,14401.0
1698411922.2633202,14406.0
1698411922.2837443,14416.0
1698411922.3041685,14425.0
1698411922.3245924,14425.0
1698411922.3450162,14435.0
1698411922.3654404,14439.0
1698411922.3858645,14439.0
1698411922.4062886,14432.0
1698411922.4267128,14437.0
1698411922.4471366,14431.0
1698411922.4675608,14427.0
1698411922.487985,14436.0
1698411922.508409,14434.0
1698411922.528833,14437.0
1698411922.549257,14437.0
1698411922.5696812,14440.0
1698411922.5901053,14432.0
1698411922.610529,14428.0
1698411922.630953,14416.0
1698411922.6513772,14402.0
1698411922.6718013,14385.0
1698411922.692225,14364.0
1698411922.7126493,14343.0
1698411922.7330735,14326.0
1698411922.7534976,14306.0
1698411922.7739217,14288.0
1698411922.7943456,14271.0
1698411922.8147697,14256.0
1698411922.8351939,14233.0
1698411922.855618,14229.0
1698411922.8760414,14221.0
1698411922.8964658,14212.0
1698411922.91689,14208.0
1698411922.937314,14200.0
1698411922.957738,14200.0
1698411922.978162,14199.0
1698411922.9985862,14203.0
